 #  Scattering amplitudes (in cm)      MU=(1-cos(TH))/2
 #  Z =  53,   projectile: electron
 #  Kinetic energy = 3.70000E+06 eV
 #
 # TH (deg)      MU          Re(F)        Im(F)        Re(G)        Im(G)
 #--------------------------------------------------------------------------
  0.000E+00  0.00000E+00  8.79098E-07  9.79238E-08  0.00000E+00  0.00000E+00
  1.000E-04  7.61557E-13  8.79097E-07  9.79237E-08  6.74062E-13  7.50914E-14
  1.250E-04  1.18994E-12  8.79096E-07  9.79237E-08  8.42577E-13  9.38642E-14
  1.500E-04  1.71346E-12  8.79095E-07  9.79237E-08  1.01109E-12  1.12637E-13
  1.750E-04  2.33225E-12  8.79094E-07  9.79237E-08  1.17960E-12  1.31410E-13
  2.000E-04  3.04617E-12  8.79092E-07  9.79237E-08  1.34812E-12  1.50183E-13
  2.250E-04  3.85530E-12  8.79091E-07  9.79237E-08  1.51663E-12  1.68955E-13
  2.500E-04  4.75964E-12  8.79089E-07  9.79236E-08  1.68514E-12  1.87728E-13
  2.750E-04  5.75917E-12  8.79087E-07  9.79236E-08  1.85365E-12  2.06501E-13
  3.000E-04  6.85391E-12  8.79085E-07  9.79236E-08  2.02216E-12  2.25274E-13
  3.250E-04  8.04379E-12  8.79083E-07  9.79235E-08  2.19067E-12  2.44046E-13
  3.500E-04  9.32893E-12  8.79081E-07  9.79235E-08  2.35917E-12  2.62819E-13
  3.750E-04  1.07092E-11  8.79078E-07  9.79235E-08  2.52768E-12  2.81592E-13
  4.000E-04  1.21847E-11  8.79075E-07  9.79234E-08  2.69618E-12  3.00365E-13
  4.250E-04  1.37554E-11  8.79072E-07  9.79234E-08  2.86468E-12  3.19137E-13
  4.500E-04  1.54213E-11  8.79069E-07  9.79234E-08  3.03318E-12  3.37910E-13
  4.750E-04  1.71823E-11  8.79066E-07  9.79233E-08  3.20168E-12  3.56682E-13
  5.000E-04  1.90386E-11  8.79062E-07  9.79233E-08  3.37018E-12  3.75455E-13
  5.250E-04  2.09900E-11  8.79059E-07  9.79232E-08  3.53867E-12  3.94228E-13
  5.500E-04  2.30367E-11  8.79055E-07  9.79232E-08  3.70717E-12  4.13000E-13
  5.750E-04  2.51785E-11  8.79051E-07  9.79231E-08  3.87566E-12  4.31773E-13
  6.000E-04  2.74156E-11  8.79047E-07  9.79230E-08  4.04414E-12  4.50545E-13
  6.250E-04  2.97478E-11  8.79042E-07  9.79230E-08  4.21263E-12  4.69317E-13
  6.500E-04  3.21752E-11  8.79038E-07  9.79229E-08  4.38111E-12  4.88090E-13
  6.750E-04  3.46979E-11  8.79033E-07  9.79228E-08  4.54959E-12  5.06862E-13
  7.000E-04  3.73157E-11  8.79028E-07  9.79228E-08  4.71807E-12  5.25634E-13
  7.250E-04  4.00286E-11  8.79023E-07  9.79227E-08  4.88654E-12  5.44407E-13
  7.500E-04  4.28368E-11  8.79018E-07  9.79226E-08  5.05501E-12  5.63179E-13
  7.750E-04  4.57402E-11  8.79013E-07  9.79226E-08  5.22348E-12  5.81951E-13
  8.000E-04  4.87388E-11  8.79007E-07  9.79225E-08  5.39195E-12  6.00723E-13
  8.250E-04  5.18325E-11  8.79001E-07  9.79224E-08  5.56041E-12  6.19495E-13
  8.500E-04  5.50215E-11  8.78995E-07  9.79223E-08  5.72887E-12  6.38267E-13
  8.750E-04  5.83057E-11  8.78989E-07  9.79222E-08  5.89732E-12  6.57039E-13
  9.000E-04  6.16850E-11  8.78983E-07  9.79221E-08  6.06577E-12  6.75811E-13
  9.250E-04  6.51595E-11  8.78976E-07  9.79220E-08  6.23422E-12  6.94583E-13
  9.500E-04  6.87293E-11  8.78970E-07  9.79219E-08  6.40266E-12  7.13355E-13
  9.750E-04  7.23943E-11  8.78963E-07  9.79219E-08  6.57110E-12  7.32127E-13
  1.000E-03  7.61544E-11  8.78956E-07  9.79218E-08  6.73954E-12  7.50898E-13
  1.250E-03  1.18991E-10  8.78876E-07  9.79206E-08  8.42366E-12  9.38612E-13
  1.500E-03  1.71347E-10  8.78778E-07  9.79192E-08  1.01073E-11  1.12632E-12
  1.750E-03  2.33223E-10  8.78663E-07  9.79176E-08  1.17903E-11  1.31402E-12
  2.000E-03  3.04617E-10  8.78529E-07  9.79157E-08  1.34725E-11  1.50170E-12
  2.250E-03  3.85531E-10  8.78379E-07  9.79136E-08  1.51540E-11  1.68938E-12
  2.500E-03  4.75965E-10  8.78210E-07  9.79112E-08  1.68346E-11  1.87704E-12
  2.750E-03  5.75917E-10  8.78024E-07  9.79086E-08  1.85141E-11  2.06469E-12
  3.000E-03  6.85389E-10  8.77820E-07  9.79057E-08  2.01925E-11  2.25233E-12
  3.250E-03  8.04380E-10  8.77598E-07  9.79025E-08  2.18697E-11  2.43994E-12
  3.500E-03  9.32891E-10  8.77359E-07  9.78992E-08  2.35456E-11  2.62754E-12
  3.750E-03  1.07092E-09  8.77102E-07  9.78955E-08  2.52200E-11  2.81511E-12
  4.000E-03  1.21847E-09  8.76828E-07  9.78916E-08  2.68929E-11  3.00267E-12
  4.250E-03  1.37554E-09  8.76536E-07  9.78875E-08  2.85642E-11  3.19020E-12
  4.500E-03  1.54213E-09  8.76227E-07  9.78831E-08  3.02338E-11  3.37771E-12
  4.750E-03  1.71823E-09  8.75900E-07  9.78785E-08  3.19016E-11  3.56519E-12
  5.000E-03  1.90386E-09  8.75556E-07  9.78736E-08  3.35674E-11  3.75264E-12
  5.250E-03  2.09900E-09  8.75195E-07  9.78684E-08  3.52312E-11  3.94007E-12
  5.500E-03  2.30367E-09  8.74816E-07  9.78630E-08  3.68929E-11  4.12747E-12
  5.750E-03  2.51785E-09  8.74420E-07  9.78574E-08  3.85524E-11  4.31483E-12
  6.000E-03  2.74156E-09  8.74007E-07  9.78515E-08  4.02096E-11  4.50216E-12
  6.250E-03  2.97478E-09  8.73576E-07  9.78454E-08  4.18644E-11  4.68945E-12
  6.500E-03  3.21752E-09  8.73129E-07  9.78390E-08  4.35167E-11  4.87671E-12
  6.750E-03  3.46978E-09  8.72664E-07  9.78323E-08  4.51663E-11  5.06394E-12
  7.000E-03  3.73156E-09  8.72182E-07  9.78255E-08  4.68133E-11  5.25112E-12
  7.250E-03  4.00286E-09  8.71684E-07  9.78183E-08  4.84575E-11  5.43826E-12
  7.500E-03  4.28368E-09  8.71168E-07  9.78109E-08  5.00988E-11  5.62537E-12
  7.750E-03  4.57402E-09  8.70636E-07  9.78033E-08  5.17371E-11  5.81242E-12
  8.000E-03  4.87388E-09  8.70086E-07  9.77954E-08  5.33724E-11  5.99944E-12
  8.250E-03  5.18326E-09  8.69520E-07  9.77873E-08  5.50045E-11  6.18641E-12
  8.500E-03  5.50215E-09  8.68938E-07  9.77789E-08  5.66333E-11  6.37333E-12
  8.750E-03  5.83057E-09  8.68339E-07  9.77703E-08  5.82588E-11  6.56020E-12
  9.000E-03  6.16850E-09  8.67723E-07  9.77614E-08  5.98809E-11  6.74702E-12
  9.250E-03  6.51596E-09  8.67091E-07  9.77523E-08  6.14994E-11  6.93379E-12
  9.500E-03  6.87293E-09  8.66442E-07  9.77430E-08  6.31143E-11  7.12051E-12
  9.750E-03  7.23942E-09  8.65777E-07  9.77333E-08  6.47255E-11  7.30717E-12
  1.000E-02  7.61544E-09  8.65096E-07  9.77235E-08  6.63329E-11  7.49378E-12
  1.250E-02  1.18991E-08  8.57410E-07  9.76114E-08  8.21796E-11  9.35648E-12
  1.500E-02  1.71347E-08  8.48196E-07  9.74750E-08  9.75560E-11  1.12121E-11
  1.750E-02  2.33223E-08  8.37555E-07  9.73145E-08  1.12388E-10  1.30592E-11
  2.000E-02  3.04617E-08  8.25598E-07  9.71305E-08  1.26610E-10  1.48966E-11
  2.250E-02  3.85531E-08  8.12448E-07  9.69232E-08  1.40167E-10  1.67229E-11
  2.500E-02  4.75965E-08  7.98232E-07  9.66933E-08  1.53016E-10  1.85370E-11
  2.750E-02  5.75917E-08  7.83084E-07  9.64411E-08  1.65124E-10  2.03375E-11
  3.000E-02  6.85389E-08  7.67135E-07  9.61674E-08  1.76466E-10  2.21234E-11
  3.250E-02  8.04380E-08  7.50520E-07  9.58727E-08  1.87031E-10  2.38936E-11
  3.500E-02  9.32891E-08  7.33366E-07  9.55577E-08  1.96815E-10  2.56470E-11
  3.750E-02  1.07092E-07  7.15799E-07  9.52230E-08  2.05821E-10  2.73827E-11
  4.000E-02  1.21847E-07  6.97935E-07  9.48694E-08  2.14064E-10  2.90998E-11
  4.250E-02  1.37554E-07  6.79887E-07  9.44977E-08  2.21561E-10  3.07973E-11
  4.500E-02  1.54213E-07  6.61754E-07  9.41084E-08  2.28338E-10  3.24747E-11
  4.750E-02  1.71823E-07  6.43631E-07  9.37026E-08  2.34422E-10  3.41310E-11
  5.000E-02  1.90386E-07  6.25601E-07  9.32808E-08  2.39848E-10  3.57656E-11
  5.250E-02  2.09900E-07  6.07737E-07  9.28440E-08  2.44649E-10  3.73781E-11
  5.500E-02  2.30367E-07  5.90106E-07  9.23929E-08  2.48864E-10  3.89677E-11
  5.750E-02  2.51785E-07  5.72762E-07  9.19283E-08  2.52529E-10  4.05342E-11
  6.000E-02  2.74156E-07  5.55755E-07  9.14510E-08  2.55684E-10  4.20769E-11
  6.250E-02  2.97478E-07  5.39122E-07  9.09618E-08  2.58367E-10  4.35957E-11
  6.500E-02  3.21752E-07  5.22896E-07  9.04616E-08  2.60615E-10  4.50902E-11
  6.750E-02  3.46978E-07  5.07103E-07  8.99510E-08  2.62464E-10  4.65602E-11
  7.000E-02  3.73156E-07  4.91760E-07  8.94308E-08  2.63950E-10  4.80055E-11
  7.250E-02  4.00286E-07  4.76883E-07  8.89018E-08  2.65106E-10  4.94259E-11
  7.500E-02  4.28368E-07  4.62479E-07  8.83648E-08  2.65964E-10  5.08214E-11
  7.750E-02  4.57402E-07  4.48552E-07  8.78204E-08  2.66554E-10  5.21919E-11
  8.000E-02  4.87388E-07  4.35103E-07  8.72693E-08  2.66902E-10  5.35374E-11
  8.250E-02  5.18325E-07  4.22129E-07  8.67122E-08  2.67036E-10  5.48581E-11
  8.500E-02  5.50215E-07  4.09624E-07  8.61497E-08  2.66978E-10  5.61538E-11
  8.750E-02  5.83057E-07  3.97581E-07  8.55825E-08  2.66750E-10  5.74249E-11
  9.000E-02  6.16850E-07  3.85989E-07  8.50111E-08  2.66372E-10  5.86713E-11
  9.250E-02  6.51596E-07  3.74839E-07  8.44362E-08  2.65863E-10  5.98933E-11
  9.500E-02  6.87293E-07  3.64117E-07  8.38583E-08  2.65238E-10  6.10910E-11
  9.750E-02  7.23942E-07  3.53809E-07  8.32778E-08  2.64512E-10  6.22647E-11
  1.000E-01  7.61543E-07  3.43903E-07  8.26953E-08  2.63699E-10  6.34146E-11
  1.250E-01  1.18991E-06  2.63699E-07  7.68518E-08  2.52751E-10  7.36674E-11
  1.500E-01  1.71347E-06  2.08595E-07  7.11799E-08  2.39923E-10  8.18773E-11
  1.750E-01  2.33223E-06  1.68891E-07  6.58429E-08  2.26633E-10  8.83619E-11
  2.000E-01  3.04617E-06  1.38884E-07  6.08974E-08  2.12992E-10  9.34009E-11
  2.250E-01  3.85531E-06  1.15403E-07  5.63495E-08  1.99105E-10  9.72296E-11
  2.500E-01  4.75964E-06  9.66366E-08  5.21851E-08  1.85253E-10  1.00050E-10
  2.750E-01  5.75916E-06  8.14652E-08  4.83831E-08  1.71787E-10  1.02038E-10
  3.000E-01  6.85388E-06  6.91240E-08  4.49199E-08  1.59015E-10  1.03347E-10
  3.250E-01  8.04378E-06  5.90444E-08  4.17707E-08  1.47147E-10  1.04111E-10
  3.500E-01  9.32888E-06  5.07808E-08  3.89104E-08  1.36289E-10  1.04443E-10
  3.750E-01  1.07092E-05  4.39755E-08  3.63134E-08  1.26455E-10  1.04436E-10
  4.000E-01  1.21846E-05  3.83394E-08  3.39548E-08  1.17598E-10  1.04164E-10
  4.250E-01  1.37553E-05  3.36397E-08  3.18106E-08  1.09632E-10  1.03686E-10
  4.500E-01  1.54212E-05  2.96898E-08  2.98580E-08  1.02451E-10  1.03048E-10
  4.750E-01  1.71822E-05  2.63418E-08  2.80763E-08  9.59484E-11  1.02283E-10
  5.000E-01  1.90385E-05  2.34786E-08  2.64465E-08  9.00208E-11  1.01418E-10
  5.250E-01  2.09899E-05  2.10085E-08  2.49518E-08  8.45775E-11  1.00471E-10
  5.500E-01  2.30365E-05  1.88594E-08  2.35772E-08  7.95410E-11  9.94579E-11
  5.750E-01  2.51783E-05  1.69749E-08  2.23094E-08  7.48474E-11  9.83888E-11
  6.000E-01  2.74153E-05  1.53109E-08  2.11371E-08  7.04455E-11  9.72727E-11
  6.250E-01  2.97475E-05  1.38325E-08  2.00502E-08  6.62950E-11  9.61164E-11
  6.500E-01  3.21749E-05  1.25121E-08  1.90401E-08  6.23654E-11  9.49262E-11
  6.750E-01  3.46974E-05  1.13277E-08  1.80992E-08  5.86332E-11  9.37071E-11
  7.000E-01  3.73152E-05  1.02614E-08  1.72212E-08  5.50810E-11  9.24642E-11
  7.250E-01  4.00281E-05  9.29869E-09  1.64001E-08  5.16956E-11  9.12019E-11
  7.500E-01  4.28362E-05  8.42743E-09  1.56312E-08  4.84672E-11  8.99245E-11
  7.750E-01  4.57395E-05  7.63751E-09  1.49101E-08  4.53881E-11  8.86361E-11
  8.000E-01  4.87380E-05  6.92029E-09  1.42329E-08  4.24521E-11  8.73408E-11
  8.250E-01  5.18317E-05  6.26832E-09  1.35963E-08  3.96539E-11  8.60422E-11
  8.500E-01  5.50205E-05  5.67514E-09  1.29971E-08  3.69889E-11  8.47438E-11
  8.750E-01  5.83045E-05  5.13505E-09  1.24327E-08  3.44526E-11  8.34488E-11
  9.000E-01  6.16838E-05  4.64299E-09  1.19005E-08  3.20407E-11  8.21602E-11
  9.250E-01  6.51582E-05  4.19444E-09  1.13984E-08  2.97489E-11  8.08806E-11
  9.500E-01  6.87277E-05  3.78537E-09  1.09243E-08  2.75726E-11  7.96126E-11
  9.750E-01  7.23925E-05  3.41214E-09  1.04764E-08  2.55073E-11  7.83581E-11
  1.000E+00  7.61524E-05  3.07143E-09  1.00528E-08  2.35484E-11  7.71189E-11
  1.100E+00  9.21439E-05  1.97848E-09  8.57259E-09  1.66828E-11  7.23435E-11
  1.200E+00  1.09658E-04  1.21225E-09  7.37473E-09  1.11474E-11  6.78959E-11
  1.300E+00  1.28695E-04  6.70037E-10  6.39562E-09  6.67001E-12  6.37916E-11
  1.400E+00  1.49255E-04  2.82516E-10  5.58723E-09  3.02174E-12  6.00183E-11
  1.500E+00  1.71338E-04  2.95790E-12  4.91320E-09  2.09756E-14  5.65504E-11
  1.600E+00  1.94942E-04 -2.00224E-10  4.34587E-09 -2.47143E-12  5.33579E-11
  1.700E+00  2.20070E-04 -3.48547E-10  3.86417E-09 -4.56026E-12  5.04113E-11
  1.800E+00  2.46720E-04 -4.56843E-10  3.45187E-09 -6.32405E-12  4.76839E-11
  1.900E+00  2.74892E-04 -5.35495E-10  3.09642E-09 -7.82199E-12  4.51523E-11
  2.000E+00  3.04586E-04 -5.91898E-10  2.78798E-09 -9.09928E-12  4.27965E-11
  2.100E+00  3.35803E-04 -6.31409E-10  2.51879E-09 -1.01910E-11  4.05995E-11
  2.200E+00  3.68542E-04 -6.57980E-10  2.28262E-09 -1.11250E-11  3.85467E-11
  2.300E+00  4.02802E-04 -6.74572E-10  2.07446E-09 -1.19237E-11  3.66257E-11
  2.400E+00  4.38585E-04 -6.83438E-10  1.89021E-09 -1.26056E-11  3.48254E-11
  2.500E+00  4.75889E-04 -6.86311E-10  1.72650E-09 -1.31862E-11  3.31362E-11
  2.600E+00  5.14715E-04 -6.84539E-10  1.58053E-09 -1.36785E-11  3.15497E-11
  2.700E+00  5.55063E-04 -6.79180E-10  1.44996E-09 -1.40938E-11  3.00579E-11
  2.800E+00  5.96931E-04 -6.71069E-10  1.33281E-09 -1.44417E-11  2.86541E-11
  2.900E+00  6.40321E-04 -6.60867E-10  1.22740E-09 -1.47307E-11  2.73319E-11
  3.000E+00  6.85233E-04 -6.49100E-10  1.13232E-09 -1.49680E-11  2.60853E-11
  3.100E+00  7.31665E-04 -6.36187E-10  1.04633E-09 -1.51600E-11  2.49092E-11
  3.200E+00  7.79618E-04 -6.22463E-10  9.68384E-10 -1.53122E-11  2.37984E-11
  3.300E+00  8.29092E-04 -6.08195E-10  8.97571E-10 -1.54296E-11  2.27487E-11
  3.400E+00  8.80086E-04 -5.93594E-10  8.33100E-10 -1.55164E-11  2.17556E-11
  3.500E+00  9.32601E-04 -5.78829E-10  7.74283E-10 -1.55763E-11  2.08154E-11
  3.600E+00  9.86636E-04 -5.64032E-10  7.20520E-10 -1.56127E-11  1.99245E-11
  3.700E+00  1.04219E-03 -5.49308E-10  6.71285E-10 -1.56285E-11  1.90796E-11
  3.800E+00  1.09927E-03 -5.34739E-10  6.26116E-10 -1.56262E-11  1.82777E-11
  3.900E+00  1.15786E-03 -5.20387E-10  5.84605E-10 -1.56079E-11  1.75159E-11
  4.000E+00  1.21797E-03 -5.06300E-10  5.46394E-10 -1.55758E-11  1.67916E-11
  4.100E+00  1.27961E-03 -4.92514E-10  5.11164E-10 -1.55315E-11  1.61024E-11
  4.200E+00  1.34276E-03 -4.79055E-10  4.78634E-10 -1.54766E-11  1.54462E-11
  4.300E+00  1.40743E-03 -4.65940E-10  4.48553E-10 -1.54123E-11  1.48208E-11
  4.400E+00  1.47362E-03 -4.53181E-10  4.20698E-10 -1.53399E-11  1.42244E-11
  4.500E+00  1.54133E-03 -4.40786E-10  3.94868E-10 -1.52605E-11  1.36552E-11
  4.600E+00  1.61056E-03 -4.28755E-10  3.70886E-10 -1.51749E-11  1.31115E-11
  4.700E+00  1.68131E-03 -4.17090E-10  3.48592E-10 -1.50841E-11  1.25919E-11
  4.800E+00  1.75357E-03 -4.05787E-10  3.27843E-10 -1.49886E-11  1.20949E-11
  4.900E+00  1.82735E-03 -3.94840E-10  3.08508E-10 -1.48891E-11  1.16192E-11
  5.000E+00  1.90265E-03 -3.84243E-10  2.90472E-10 -1.47863E-11  1.11637E-11
  5.100E+00  1.97947E-03 -3.73988E-10  2.73629E-10 -1.46806E-11  1.07272E-11
  5.200E+00  2.05780E-03 -3.64068E-10  2.57884E-10 -1.45725E-11  1.03087E-11
  5.300E+00  2.13765E-03 -3.54473E-10  2.43151E-10 -1.44624E-11  9.90714E-12
  5.400E+00  2.21902E-03 -3.45193E-10  2.29353E-10 -1.43505E-11  9.52167E-12
  5.500E+00  2.30190E-03 -3.36218E-10  2.16417E-10 -1.42374E-11  9.15142E-12
  5.600E+00  2.38630E-03 -3.27539E-10  2.04280E-10 -1.41231E-11  8.79562E-12
  5.700E+00  2.47222E-03 -3.19147E-10  1.92882E-10 -1.40080E-11  8.45352E-12
  5.800E+00  2.55965E-03 -3.11030E-10  1.82169E-10 -1.38924E-11  8.12443E-12
  5.900E+00  2.64859E-03 -3.03180E-10  1.72093E-10 -1.37763E-11  7.80770E-12
  6.000E+00  2.73905E-03 -2.95586E-10  1.62608E-10 -1.36600E-11  7.50272E-12
  6.100E+00  2.83103E-03 -2.88241E-10  1.53673E-10 -1.35436E-11  7.20893E-12
  6.200E+00  2.92452E-03 -2.81134E-10  1.45251E-10 -1.34272E-11  6.92579E-12
  6.300E+00  3.01952E-03 -2.74257E-10  1.37306E-10 -1.33111E-11  6.65280E-12
  6.400E+00  3.11604E-03 -2.67601E-10  1.29806E-10 -1.31953E-11  6.38948E-12
  6.500E+00  3.21407E-03 -2.61158E-10  1.22722E-10 -1.30799E-11  6.13540E-12
  6.600E+00  3.31362E-03 -2.54920E-10  1.16027E-10 -1.29649E-11  5.89014E-12
  6.700E+00  3.41468E-03 -2.48879E-10  1.09696E-10 -1.28505E-11  5.65329E-12
  6.800E+00  3.51725E-03 -2.43029E-10  1.03706E-10 -1.27368E-11  5.42449E-12
  6.900E+00  3.62133E-03 -2.37361E-10  9.80340E-11 -1.26237E-11  5.20339E-12
  7.000E+00  3.72692E-03 -2.31870E-10  9.26616E-11 -1.25114E-11  4.98965E-12
  7.100E+00  3.83403E-03 -2.26548E-10  8.75700E-11 -1.23999E-11  4.78296E-12
  7.200E+00  3.94265E-03 -2.21388E-10  8.27422E-11 -1.22892E-11  4.58303E-12
  7.300E+00  4.05278E-03 -2.16386E-10  7.81622E-11 -1.21794E-11  4.38957E-12
  7.400E+00  4.16442E-03 -2.11535E-10  7.38154E-11 -1.20705E-11  4.20231E-12
  7.500E+00  4.27757E-03 -2.06829E-10  6.96880E-11 -1.19625E-11  4.02102E-12
  7.600E+00  4.39223E-03 -2.02264E-10  6.57672E-11 -1.18555E-11  3.84543E-12
  7.700E+00  4.50840E-03 -1.97834E-10  6.20412E-11 -1.17494E-11  3.67533E-12
  7.800E+00  4.62608E-03 -1.93534E-10  5.84988E-11 -1.16443E-11  3.51051E-12
  7.900E+00  4.74527E-03 -1.89360E-10  5.51297E-11 -1.15402E-11  3.35074E-12
  8.000E+00  4.86597E-03 -1.85306E-10  5.19242E-11 -1.14371E-11  3.19585E-12
  8.100E+00  4.98817E-03 -1.81369E-10  4.88732E-11 -1.13350E-11  3.04565E-12
  8.200E+00  5.11188E-03 -1.77544E-10  4.59683E-11 -1.12340E-11  2.89995E-12
  8.300E+00  5.23711E-03 -1.73828E-10  4.32015E-11 -1.11340E-11  2.75859E-12
  8.400E+00  5.36383E-03 -1.70217E-10  4.05654E-11 -1.10350E-11  2.62140E-12
  8.500E+00  5.49207E-03 -1.66706E-10  3.80531E-11 -1.09370E-11  2.48825E-12
  8.600E+00  5.62181E-03 -1.63292E-10  3.56580E-11 -1.08401E-11  2.35897E-12
  8.700E+00  5.75306E-03 -1.59973E-10  3.33740E-11 -1.07442E-11  2.23342E-12
  8.800E+00  5.88581E-03 -1.56744E-10  3.11952E-11 -1.06493E-11  2.11149E-12
  8.900E+00  6.02007E-03 -1.53603E-10  2.91164E-11 -1.05555E-11  1.99303E-12
  9.000E+00  6.15583E-03 -1.50547E-10  2.71324E-11 -1.04626E-11  1.87793E-12
  9.100E+00  6.29310E-03 -1.47572E-10  2.52384E-11 -1.03708E-11  1.76607E-12
  9.200E+00  6.43187E-03 -1.44677E-10  2.34298E-11 -1.02800E-11  1.65733E-12
  9.300E+00  6.57214E-03 -1.41858E-10  2.17025E-11 -1.01902E-11  1.55162E-12
  9.400E+00  6.71392E-03 -1.39112E-10  2.00524E-11 -1.01014E-11  1.44883E-12
  9.500E+00  6.85720E-03 -1.36438E-10  1.84758E-11 -1.00136E-11  1.34886E-12
  9.600E+00  7.00198E-03 -1.33834E-10  1.69690E-11 -9.92676E-12  1.25161E-12
  9.700E+00  7.14827E-03 -1.31296E-10  1.55287E-11 -9.84090E-12  1.15700E-12
  9.800E+00  7.29605E-03 -1.28822E-10  1.41518E-11 -9.75600E-12  1.06494E-12
  9.900E+00  7.44534E-03 -1.26412E-10  1.28351E-11 -9.67205E-12  9.75353E-13
  1.000E+01  7.59612E-03 -1.24062E-10  1.15759E-11 -9.58905E-12  8.88151E-13
  1.025E+01  7.97965E-03 -1.18439E-10  8.66198E-12 -9.38561E-12  6.80101E-13
  1.050E+01  8.37255E-03 -1.13155E-10  6.05238E-12 -9.18787E-12  4.85393E-13
  1.075E+01  8.77480E-03 -1.08185E-10  3.71365E-12 -8.99566E-12  3.03019E-13
  1.100E+01  9.18641E-03 -1.03504E-10  1.61646E-12 -8.80883E-12  1.32060E-13
  1.125E+01  9.60736E-03 -9.90921E-11 -2.64983E-13 -8.62722E-12 -2.83179E-14
  1.150E+01  1.00376E-02 -9.49295E-11 -1.95336E-12 -8.45065E-12 -1.78875E-13
  1.175E+01  1.04773E-02 -9.09985E-11 -3.46872E-12 -8.27898E-12 -3.20307E-13
  1.200E+01  1.09262E-02 -8.72831E-11 -4.82876E-12 -8.11205E-12 -4.53249E-13
  1.225E+01  1.13844E-02 -8.37682E-11 -6.04920E-12 -7.94970E-12 -5.78283E-13
  1.250E+01  1.18520E-02 -8.04404E-11 -7.14398E-12 -7.79178E-12 -6.95943E-13
  1.275E+01  1.23288E-02 -7.72870E-11 -8.12552E-12 -7.63815E-12 -8.06721E-13
  1.300E+01  1.28150E-02 -7.42967E-11 -9.00487E-12 -7.48866E-12 -9.11067E-13
  1.325E+01  1.33104E-02 -7.14588E-11 -9.79191E-12 -7.34317E-12 -1.00940E-12
  1.350E+01  1.38150E-02 -6.87635E-11 -1.04955E-11 -7.20156E-12 -1.10210E-12
  1.375E+01  1.43290E-02 -6.62019E-11 -1.11235E-11 -7.06368E-12 -1.18952E-12
  1.400E+01  1.48521E-02 -6.37655E-11 -1.16830E-11 -6.92943E-12 -1.27199E-12
  1.425E+01  1.53845E-02 -6.14467E-11 -1.21805E-11 -6.79866E-12 -1.34982E-12
  1.450E+01  1.59262E-02 -5.92384E-11 -1.26217E-11 -6.67127E-12 -1.42329E-12
  1.475E+01  1.64770E-02 -5.71338E-11 -1.30116E-11 -6.54715E-12 -1.49266E-12
  1.500E+01  1.70371E-02 -5.51270E-11 -1.33551E-11 -6.42619E-12 -1.55816E-12
