# xed.py --ued --calculation-type static --signal-geoms CF3I.xyz --qmin 0.0 --qmax 6.0 --npoints 600 --plot-units angstrom-1 --export ued.out --log-to-file --plot
0.000000000000000000e+00 0.000000000000000000e+00
1.001669449081802991e-02 1.641664593267577396e-02
2.003338898163605983e-02 3.279883092029078212e-02
3.005008347245408801e-02 4.911143996752186797e-02
4.006677796327211966e-02 6.532070293972130903e-02
5.008347245409015130e-02 8.139187933484036408e-02
6.010016694490817601e-02 9.729158684252764422e-02
7.011686143572620766e-02 1.129860207635328823e-01
8.013355592654423931e-02 1.284419547724578725e-01
9.015025041736227096e-02 1.436278541761761285e-01
1.001669449081803026e-01 1.585105733749456736e-01
1.101836393989983343e-01 1.730602727441790945e-01
1.202003338898163520e-01 1.872452718795932225e-01
1.302170283806343976e-01 2.010369902049174429e-01
1.402337228714524153e-01 2.144059432058277870e-01
1.502504173622704609e-01 2.273247279701089973e-01
1.602671118530884786e-01 2.397673443586796349e-01
1.702838063439064964e-01 2.517075563281113149e-01
1.803005008347245419e-01 2.631204081621310586e-01
1.903171953255425597e-01 2.739842165915949423e-01
2.003338898163606052e-01 2.842746609205454300e-01
2.103505843071786230e-01 2.939726635944804323e-01
2.203672787979966685e-01 3.030589648726860763e-01
2.303839732888146863e-01 3.115156052333921677e-01
2.404006677796327041e-01 3.193260583402230957e-01
2.504173622704507496e-01 3.264752710560547277e-01
2.604340567612687951e-01 3.329497180844552262e-01
2.704507512520867851e-01 3.387374415079709156e-01
2.804674457429048307e-01 3.438280712898461600e-01
2.904841402337228762e-01 3.482128520798065119e-01
3.005008347245409217e-01 3.518846725477197124e-01
3.105175292153589117e-01 3.548381411242379491e-01
3.205342237061769572e-01 3.570695736867950387e-01
3.305509181969950028e-01 3.585769648156071909e-01
3.405676126878129928e-01 3.593599912926407902e-01
3.505843071786310383e-01 3.594199953288075289e-01
3.606010016694490838e-01 3.587598799040693787e-01
3.706176961602671294e-01 3.573841713380228047e-01
3.806343906510851194e-01 3.552990618942395429e-01
3.906510851419031649e-01 3.525123974790441705e-01
4.006677796327212104e-01 3.490336779182356408e-01
4.106844741235392005e-01 3.448741006292548317e-01
4.207011686143572460e-01 3.400464719693412907e-01
4.307178631051752915e-01 3.345651491716511994e-01
4.407345575959933370e-01 3.284460048623293327e-01
4.507512520868113270e-01 3.217063718977967723e-01
4.607679465776293726e-01 3.143649632395649762e-01
4.707846410684474181e-01 3.064418731753225100e-01
4.808013355592654081e-01 2.979585410648013521e-01
4.908180300500834536e-01 2.889376990862271843e-01
5.008347245409014992e-01 2.794033238737098079e-01
5.108514190317194892e-01 2.693805884031088005e-01
5.208681135225375902e-01 2.588957841844565788e-01
5.308848080133555802e-01 2.479762530279289445e-01
5.409015025041735703e-01 2.366503186994698971e-01
5.509181969949916713e-01 2.249472129717980939e-01
5.609348914858096613e-01 2.128969982786816650e-01
5.709515859766276513e-01 2.005304951466726215e-01
5.809682804674457524e-01 1.878792046349916645e-01
5.909849749582637424e-01 1.749752287172385568e-01
6.010016694490818434e-01 1.618512019720473316e-01
6.110183639398998334e-01 1.485402104581340921e-01
6.210350584307178234e-01 1.350756880906154589e-01
6.310517529215359245e-01 1.214913291724342981e-01
6.410684474123539145e-01 1.078210014155165514e-01
6.510851419031719045e-01 9.409865917809472069e-02
6.611018363939900055e-01 8.035825469997291692e-02
6.711185308848079956e-01 6.663364848943795216e-02
6.811352253756259856e-01 5.295852100709425025e-02
6.911519198664440866e-01 3.936628393718519942e-02
7.011686143572620766e-01 2.588998465438328150e-02
7.111853088480801777e-01 1.256222593706861346e-02
7.212020033388981677e-01 -5.849117625689542960e-04
7.312186978297161577e-01 -1.351995491840057850e-02
7.412353923205342587e-01 -2.621211885366953390e-02
7.512520868113522488e-01 -3.863138184223099958e-02
7.612687813021702388e-01 -5.074858242429845095e-02
7.712854757929883398e-01 -6.253550654061659775e-02
7.813021702838063298e-01 -7.396496238263823575e-02
7.913188647746243198e-01 -8.501085575135208794e-02
8.013355592654424209e-01 -9.564827498772691949e-02
8.113522537562604109e-01 -1.058535422790259084e-01
8.213689482470784009e-01 -1.156042682337776184e-01
8.313856427378965019e-01 -1.248794110148335607e-01
8.414023372287144920e-01 -1.336593223979778422e-01
8.514190317195325930e-01 -1.419257686123295281e-01
8.614357262103505830e-01 -1.496620095402452499e-01
8.714524207011685730e-01 -1.568528550274874422e-01
8.814691151919866741e-01 -1.634847059356742682e-01
8.914858096828046641e-01 -1.695456107416818403e-01
9.015025041736226541e-01 -1.750253392642407146e-01
9.115191986644407551e-01 -1.799153606887884393e-01
9.215358931552587451e-01 -1.842088523031056579e-01
9.315525876460767352e-01 -1.879007146825341645e-01
9.415692821368948362e-01 -1.909875714198584484e-01
9.515859766277128262e-01 -1.934677641290761807e-01
9.616026711185308162e-01 -1.953413764689585219e-01
9.716193656093489173e-01 -1.966102340494058354e-01
9.816360601001669073e-01 -1.972778962052537943e-01
9.916527545909850083e-01 -1.973496518270765887e-01
1.001669449081802998e+00 -1.968325044010220126e-01
1.011686143572620988e+00 -1.957351326426179650e-01
1.021702838063438978e+00 -1.940678600433120293e-01
1.031719532554257190e+00 -1.918426215596918949e-01
1.041736227045075180e+00 -1.890729406335352469e-01
1.051752921535893170e+00 -1.857738891614537646e-01
1.061769616026711160e+00 -1.819620216635206289e-01
1.071786310517529150e+00 -1.776553211285600842e-01
1.081803005008347141e+00 -1.728731406383557934e-01
1.091819699499165353e+00 -1.676361248554746608e-01
1.101836393989983343e+00 -1.619661511760784878e-01
1.111853088480801333e+00 -1.558862790314086977e-01
1.121869782971619323e+00 -1.494206789792587309e-01
1.131886477462437313e+00 -1.425945601042205857e-01
1.141903171953255303e+00 -1.354341123174138961e-01
1.151919866444073515e+00 -1.279664046043979542e-01
1.161936560934891505e+00 -1.202192805059946884e-01
1.171953255425709495e+00 -1.122212705213138650e-01
1.181969949916527485e+00 -1.040015019102614874e-01
1.191986644407345475e+00 -9.558960584877933264e-02
1.202003338898163687e+00 -8.701564037203922408e-02
1.212020033388981677e+00 -7.831000307754897027e-02
1.222036727879799667e+00 -6.950333673856430583e-02
1.232053422370617657e+00 -6.062643446065978103e-02
1.242070116861435647e+00 -5.171013909528991009e-02
1.252086811352253637e+00 -4.278523185357682029e-02
1.262103505843071849e+00 -3.388233338264224487e-02
1.272120200333889839e+00 -2.503180882351419001e-02
1.282136894824707829e+00 -1.626367554527230475e-02
1.292153589315525819e+00 -7.607520098542089847e-03
1.302170283806343809e+00 9.075897226748451917e-04
1.312186978297162021e+00 9.253195417076691409e-03
1.322203672787980011e+00 1.740153611168405653e-02
1.332220367278798001e+00 2.532563307470840630e-02
1.342237061769615991e+00 3.299937270851480836e-02
1.352253756260433981e+00 4.039759382659503795e-02
1.362270450751251971e+00 4.749616625965956407e-02
1.372287145242070183e+00 5.427206527889626153e-02
1.382303839732888173e+00 6.070346051625701705e-02
1.392320534223706163e+00 6.676980238817323277e-02
1.402337228714524153e+00 7.245185551784638633e-02
1.412353923205342143e+00 7.773175220413122699e-02
1.422370617696160355e+00 8.259304462213357123e-02
1.432387312186978345e+00 8.702072458192411375e-02
1.442404006677796335e+00 9.100125410192076714e-02
1.452420701168614325e+00 9.452264196698732801e-02
1.462437395659432315e+00 9.757448185133628382e-02
1.472454090150250305e+00 1.001479836827649517e-01
1.482470784641068517e+00 1.022360311473484995e-01
1.492487479131886507e+00 1.038332014018251426e-01
1.502504173622704498e+00 1.049357437038724722e-01
1.512520868113522488e+00 1.055415851060717003e-01
1.522537562604340478e+00 1.056503303834538110e-01
1.532554257095158468e+00 1.052632311302824780e-01
1.542570951585976680e+00 1.043831857520913231e-01
1.552587646076794670e+00 1.030147486759432213e-01
1.562604340567612660e+00 1.011641118712938991e-01
1.572621035058430650e+00 9.883908359000918853e-02
1.582637729549248640e+00 9.604908494464473034e-02
1.592654424040066852e+00 9.280509805314578198e-02
1.602671118530884842e+00 8.911960737385273001e-02
1.612687813021702832e+00 8.500655381515528908e-02
1.622704507512520822e+00 8.048128149720001900e-02
1.632721202003338812e+00 7.556046869016583289e-02
1.642737896494156802e+00 7.026208511172439553e-02
1.652754590984975014e+00 6.460533831298148622e-02
1.662771285475793004e+00 5.861060736819199979e-02
1.672787979966610994e+00 5.229937360498064514e-02
1.682804674457428984e+00 4.569414730400460367e-02
1.692821368948246974e+00 3.881838202548300309e-02
1.702838063439065186e+00 3.169639169455627098e-02
1.712854757929883176e+00 2.435326700027649199e-02
1.722871452420701166e+00 1.681479177810722356e-02
1.732888146911519156e+00 9.107362055558192518e-03
1.742904841402337146e+00 1.257892588229117580e-03
1.752921535893155136e+00 -6.706275708203051147e-03
1.762938230383973348e+00 -1.475746832536202653e-02
1.772954924874791338e+00 -2.286777390193046877e-02
1.782971619365609328e+00 -3.100914357537246091e-02
1.792988313856427318e+00 -3.915348018702553834e-02
1.803005008347245308e+00 -4.727273202506288019e-02
1.813021702838063520e+00 -5.533898727262603207e-02
1.823038397328881510e+00 -6.332456784148954299e-02
1.833055091819699500e+00 -7.120212273574585971e-02
1.843071786310517490e+00 -7.894472018080234132e-02
1.853088480801335480e+00 -8.652593776664192771e-02
1.863105175292153470e+00 -9.391995050693746627e-02
1.873121869782971682e+00 -1.011016091799732119e-01
1.883138564273789672e+00 -1.080465205716543836e-01
1.893155258764607662e+00 -1.147311368691344563e-01
1.903171953255425652e+00 -1.211328345151481689e-01
1.913188647746243642e+00 -1.272299902077039246e-01
1.923205342237061632e+00 -1.330020703637665169e-01
1.933222036727879845e+00 -1.384297000238779440e-01
1.943238731218697835e+00 -1.434947114585495287e-01
1.953255425709515825e+00 -1.481802030623081134e-01
1.963272120200333815e+00 -1.524705928778139763e-01
1.973288814691151805e+00 -1.563516500586605296e-01
1.983305509181970017e+00 -1.598105458170128723e-01
1.993322203672788007e+00 -1.628359079851576519e-01
2.003338898163605997e+00 -1.654178579440424568e-01
2.013355592654423987e+00 -1.675480422349624743e-01
2.023372287145241977e+00 -1.692196590099959708e-01
2.033388981636059967e+00 -1.704274792351060386e-01
2.043405676126877957e+00 -1.711678625773402351e-01
2.053422370617695947e+00 -1.714387679252960539e-01
2.063439065108514381e+00 -1.712397585099351971e-01
2.073455759599332371e+00 -1.705720016108526749e-01
2.083472454090150361e+00 -1.694382628511701405e-01
2.093489148580968351e+00 -1.678428951022890026e-01
2.103505843071786341e+00 -1.657918220377171403e-01
2.113522537562604331e+00 -1.632925163930388224e-01
2.123539232053422321e+00 -1.603539730067536917e-01
2.133555926544240311e+00 -1.569866767341083214e-01
2.143572621035058301e+00 -1.532025653431463297e-01
2.153589315525876291e+00 -1.490149875189081818e-01
2.163606010016694281e+00 -1.444386561180229511e-01
2.173622704507512271e+00 -1.394895968317283463e-01
2.183639398998330705e+00 -1.341850924306485227e-01
2.193656093489148695e+00 -1.285436227793460007e-01
2.203672787979966685e+00 -1.225848008227053421e-01
2.213689482470784675e+00 -1.163293047596096336e-01
2.223706176961602665e+00 -1.097988066319828537e-01
2.233722871452420655e+00 -1.030158975691684298e-01
2.243739565943238645e+00 -9.600400993867382049e-02
2.253756260434056635e+00 -8.878733666452386097e-02
2.263772954924874625e+00 -8.139074798381548681e-02
2.273789649415692615e+00 -7.383970592048486048e-02
2.283806343906510605e+00 -6.616017676278886095e-02
2.293823038397329039e+00 -5.837854183753145298e-02
2.303839732888147029e+00 -5.052150687959821446e-02
2.313856427378965019e+00 -4.261601029990660927e-02
2.323873121869783009e+00 -3.468913065839699522e-02
2.333889816360600999e+00 -2.676799365118154653e-02
2.343906510851418989e+00 -1.887967892243146498e-02
2.353923205342236979e+00 -1.105112701199051015e-02
2.363939899833054969e+00 -3.309046749100399282e-03
2.373956594323872960e+00 4.320176599047464636e-03
2.383973288814690950e+00 1.181057211789774374e-02
2.393989983305508940e+00 1.913667267291390903e-02
2.404006677796327374e+00 2.627360267613758696e-02
2.414023372287145364e+00 3.319716389998077222e-02
2.424040066777963354e+00 3.988391905298689644e-02
2.434056761268781344e+00 4.631127283987858390e-02
2.444073455759599334e+00 5.245755023674090328e-02
2.454090150250417324e+00 5.830207151174321423e-02
2.464106844741235314e+00 6.382522220250810840e-02
2.474123539232053304e+00 6.900852086865490176e-02
2.484140233722871294e+00 7.383468439627265123e-02
2.494156928213689284e+00 7.828768912029683558e-02
2.504173622704507274e+00 8.235282780938776859e-02
2.514190317195325708e+00 8.601676232270381861e-02
2.524207011686143698e+00 8.926757176004462835e-02
2.534223706176961688e+00 9.209479594147818027e-02
2.544240400667779678e+00 9.448947406773484936e-02
2.554257095158597668e+00 9.644417842833069576e-02
2.564273789649415658e+00 9.795304304047504351e-02
2.574290484140233648e+00 9.901178711832438195e-02
2.584307178631051638e+00 9.961773328895674740e-02
2.594323873121869628e+00 9.976982048855276286e-02
2.604340567612687618e+00 9.946861148958563437e-02
2.614357262103505608e+00 9.871629502731420203e-02
2.624373956594324042e+00 9.751668251146115851e-02
2.634390651085142032e+00 9.587519932660656941e-02
2.644407345575960022e+00 9.379887074245366052e-02
2.654424040066778012e+00 9.129630247269616972e-02
2.664440734557596002e+00 8.837765593865411218e-02
2.674457429048413992e+00 8.505461831110697202e-02
2.684474123539231982e+00 8.134036742077768722e-02
2.694490818030049972e+00 7.724953164464781752e-02
2.704507512520867962e+00 7.279814489166717972e-02
2.714524207011685952e+00 6.800359682740199363e-02
2.724540901502503942e+00 6.288457849269114830e-02
2.734557595993322376e+00 5.746102348640212687e-02
2.744574290484140366e+00 5.175404489685572068e-02
2.754590984974958356e+00 4.578586818034228317e-02
2.764607679465776346e+00 3.957976019840679649e-02
2.774624373956594336e+00 3.315995463808694976e-02
2.784641068447412326e+00 2.655157405113227689e-02
2.794657762938230317e+00 1.978054875924764935e-02
2.804674457429048307e+00 1.287353288268440997e-02
2.814691151919866297e+00 5.857817758885844328e-03
2.824707846410684287e+00 -1.238756973536409185e-03
2.834724540901502277e+00 -8.387894342571302828e-03
2.844741235392320711e+00 -1.556093277264047545e-02
2.854757929883138701e+00 -2.272894028101296246e-02
2.864774624373956691e+00 -2.986280984045933812e-02
2.874791318864774681e+00 -3.693335560390345607e-02
2.884808013355592671e+00 -4.391140968393635741e-02
2.894824707846410661e+00 -5.076791917811570437e-02
2.904841402337228651e+00 -5.747404313005304022e-02
2.914858096828046641e+00 -6.400124911635120262e-02
2.924874791318864631e+00 -7.032140915050698327e-02
2.934891485809682621e+00 -7.640689459693733587e-02
2.944908180300500611e+00 -8.223066810503704138e-02
2.954924874791319045e+00 -8.776636920709611489e-02
2.964941569282137035e+00 -9.298840860203826109e-02
2.974958263772955025e+00 -9.787205829241413246e-02
2.984974958263773015e+00 -1.023935375347347354e-01
2.994991652754591005e+00 -1.065300961125025953e-01
3.005008347245408995e+00 -1.102600946623573108e-01
3.015025041736226985e+00 -1.135630817925228492e-01
3.025041736227044975e+00 -1.164198677423642220e-01
3.035058430717862965e+00 -1.188125943423119918e-01
3.045075125208680955e+00 -1.207248010445810815e-01
3.055091819699498945e+00 -1.221414868070502535e-01
3.065108514190316935e+00 -1.230491676252668670e-01
3.075125208681135369e+00 -1.234359295208000834e-01
3.085141903171953359e+00 -1.232914768080424911e-01
3.095158597662771349e+00 -1.226071754759836818e-01
3.105175292153589339e+00 -1.213760915364400228e-01
3.115191986644407329e+00 -1.195930242056515436e-01
3.125208681135225319e+00 -1.172545338020021949e-01
3.135225375626043309e+00 -1.143589642588581229e-01
3.145242070116861299e+00 -1.109064601680580520e-01
3.155258764607679289e+00 -1.068989782864250698e-01
3.165275459098497279e+00 -1.023402934547083254e-01
3.175292153589315269e+00 -9.723599889557418829e-02
3.185308848080133703e+00 -9.159350087459450229e-02
3.195325542570951693e+00 -8.542200772556216015e-02
3.205342237061769683e+00 -7.873251325884941809e-02
3.215358931552587674e+00 -7.153777458887101981e-02
3.225375626043405664e+00 -6.385228443394161402e-02
3.235392320534223654e+00 -5.569223795890454465e-02
3.245409015025041644e+00 -4.707549424776934222e-02
3.255425709515859634e+00 -3.802153251021432590e-02
3.265442404006677624e+00 -2.855140314208633873e-02
3.275459098497495614e+00 -1.868767377598126028e-02
3.285475792988313604e+00 -8.454370473480358333e-03
3.295492487479132038e+00 2.123085774308159940e-03
3.305509181969950028e+00 1.301794705671528198e-02
3.315525876460768018e+00 2.420221086881519865e-02
3.325542570951586008e+00 3.564669654346662442e-02
3.335559265442403998e+00 4.732112556876675452e-02
3.345575959933221988e+00 5.919420555748229618e-02
3.355592654424039978e+00 7.123371762365086901e-02
3.365609348914857968e+00 8.340660691093072787e-02
3.375626043405675958e+00 9.567907600741180907e-02
3.385642737896493948e+00 1.080166809725747884e-01
3.395659432387311938e+00 1.203844296938761244e-01
3.405676126878130372e+00 1.327468822830912276e-01
3.415692821368948362e+00 1.450682532160959270e-01
3.425709515859766352e+00 1.573125149116521293e-01
3.435726210350584342e+00 1.694435006504386998e-01
3.445742904841402332e+00 1.814250056949300305e-01
3.455759599332220322e+00 1.932208955948682694e-01
3.465776293823038312e+00 2.047952131303326651e-01
3.475792988313856302e+00 2.161122845503439527e-01
3.485809682804674292e+00 2.271368254249338525e-01
3.495826377295492282e+00 2.378340457959406129e-01
3.505843071786310272e+00 2.481697543133956074e-01
3.515859766277128706e+00 2.581104610469065475e-01
3.525876460767946696e+00 2.676234786649089314e-01
3.535893155258764686e+00 2.766770216790634396e-01
3.545909849749582676e+00 2.852403034563594231e-01
3.555926544240400666e+00 2.932836307076991944e-01
3.565943238731218656e+00 3.007784951687859643e-01
3.575959933222036646e+00 3.076976621970796688e-01
3.585976627712854636e+00 3.140152560173119500e-01
3.595993322203672626e+00 3.197068413576187318e-01
3.606010016694490616e+00 3.247495012286640836e-01
3.616026711185308606e+00 3.291219106092004298e-01
3.626043405676127040e+00 3.328044058132820782e-01
3.636060100166945031e+00 3.357790493267966414e-01
3.646076794657763021e+00 3.380296899140775024e-01
3.656093489148581011e+00 3.395420178090142738e-01
3.666110183639399001e+00 3.403036148193467891e-01
3.676126878130216991e+00 3.403039991875611014e-01
3.686143572621034981e+00 3.395346650670222899e-01
3.696160267111852971e+00 3.379891164876390741e-01
3.706176961602670961e+00 3.356628957013496617e-01
3.716193656093488951e+00 3.325536058140867723e-01
3.726210350584306941e+00 3.286609276274959357e-01
3.736227045075125375e+00 3.239866306305331234e-01
3.746243739565943365e+00 3.185345780981186925e-01
3.756260434056761355e+00 3.123107262711732890e-01
3.766277128547579345e+00 3.053231176096131150e-01
3.776293823038397335e+00 2.975818681271529265e-01
3.786310517529215325e+00 2.890991488339988424e-01
3.796327212020033315e+00 2.798891613306924153e-01
3.806343906510851305e+00 2.699681076134046731e-01
3.816360601001669295e+00 2.593541541678392459e-01
3.826377295492487285e+00 2.480673904455484025e-01
3.836393989983305275e+00 2.361297818328178810e-01
3.846410684474123265e+00 2.235651172383206486e-01
3.856427378964941699e+00 2.103989514413986961e-01
3.866444073455759689e+00 1.966585423580861081e-01
3.876460767946577679e+00 1.823727833967553613e-01
3.886477462437395669e+00 1.675721310895727512e-01
3.896494156928213659e+00 1.522885281996614881e-01
3.906510851419031649e+00 1.365553225170184071e-01
3.916527545909849639e+00 1.204071815456475153e-01
3.926544240400667629e+00 1.038800015829381418e-01
