# xed.py --ued --calculation-type static --signal-geoms CF3I.xyz --qmin 0.0 --qmax 6.0 --npoints 600 --plot-units angstrom-1 --export ued.out
0.000000000000000000e+00 0.000000000000000000e+00
1.001669449081802991e-02 1.641664590691023842e-02
2.003338898163605983e-02 3.279883071431170111e-02
3.005008347245408801e-02 4.911143927316852231e-02
4.006677796327211966e-02 6.532070129656970814e-02
5.008347245409015130e-02 8.139187613240590757e-02
6.010016694490817601e-02 9.729158132312995533e-02
7.011686143572620766e-02 1.129860120259477962e-01
8.013355592654423931e-02 1.284419417762013571e-01
9.015025041736227096e-02 1.436278357463853517e-01
1.001669449081803026e-01 1.585105482082398431e-01
1.101836393989983343e-01 1.730602394146180667e-01
1.202003338898163520e-01 1.872452288459732495e-01
1.302170283806343976e-01 2.010369358178288879e-01
1.402337228714524153e-01 2.144058757161728113e-01
1.502504173622704609e-01 2.273246455373039154e-01
1.602671118530884786e-01 2.397672450598220262e-01
1.702838063439064964e-01 2.517074381676049355e-01
1.803005008347245419e-01 2.631202690823372659e-01
1.903171953255425597e-01 2.739840544816462553e-01
2.003338898163606052e-01 2.842744736293006946e-01
2.103505843071786230e-01 2.939724489399439533e-01
2.203672787979966685e-01 3.030587206540354406e-01
2.303839732888146863e-01 3.115153292425507092e-01
2.404006677796327041e-01 3.193257483736954838e-01
2.504173622704507496e-01 3.264749249269200959e-01
2.604340567612687951e-01 3.329493336345464294e-01
2.704507512520867851e-01 3.387370166201366106e-01
2.804674457429048307e-01 3.438276039001860740e-01
2.904841402337228762e-01 3.482123401898775117e-01
3.005008347245409217e-01 3.518841142366488928e-01
3.105175292153589117e-01 3.548375345605552234e-01
3.205342237061769572e-01 3.570689171400971973e-01
3.305509181969950028e-01 3.585762566680642527e-01
3.405676126878129928e-01 3.593592300502274628e-01
3.505843071786310383e-01 3.594191796322529497e-01
3.606010016694490838e-01 3.587590085397348028e-01
3.706176961602671294e-01 3.573832432482705879e-01
3.806343906510851194e-01 3.552980761872336357e-01
3.906510851419031649e-01 3.525113534380486802e-01
4.006677796327212104e-01 3.490325750103113189e-01
4.106844741235392005e-01 3.448729385131004133e-01
4.207011686143572460e-01 3.400452505026598238e-01
4.307178631051752915e-01 3.345638684179344513e-01
4.407345575959933370e-01 3.284446650969439219e-01
4.507512520868113270e-01 3.217049736134062199e-01
4.607679465776293726e-01 3.143635071509817691e-01
4.707846410684474181e-01 3.064403602234146984e-01
4.808013355592654081e-01 2.979569724195297309e-01
4.908180300500834536e-01 2.889360761488372620e-01
5.008347245409014992e-01 2.794016482780357080e-01
5.108514190317194892e-01 2.693788620159547342e-01
5.208681135225375902e-01 2.588940091051087355e-01
5.308848080133555802e-01 2.479744315867588866e-01
5.409015025041735703e-01 2.366484534556116959e-01
5.509181969949916713e-01 2.249453067098733106e-01
5.609348914858096613e-01 2.128950540045763395e-01
5.709515859766276513e-01 2.005285160824098467e-01
5.809682804674457524e-01 1.878771942126801764e-01
5.909849749582637424e-01 1.749731905720934011e-01
6.010016694490818434e-01 1.618491399344077486e-01
6.110183639398998334e-01 1.485381285445408484e-01
6.210350584307178234e-01 1.350735904941131327e-01
6.310517529215359245e-01 1.214892202520231196e-01
6.410684474123539145e-01 1.078188856847700355e-01
6.510851419031719045e-01 9.409654129295159930e-02
6.611018363939900055e-01 8.035613944575631384e-02
6.711185308848079956e-01 6.663154076715259444e-02
6.811352253756259856e-01 5.295642581902227503e-02
6.911519198664440866e-01 3.936420637183243171e-02
7.011686143572620766e-01 2.588792987094886908e-02
7.111853088480801777e-01 1.256019914929750077e-02
7.212020033388981677e-01 -5.869053031658928677e-04
7.312186978297161577e-01 -1.352190993980369703e-02
7.412353923205342587e-01 -2.621403008108090515e-02
7.512520868113522488e-01 -3.863324401659098961e-02
7.612687813021702388e-01 -5.075039032083877855e-02
7.712854757929883398e-01 -6.253725498737500166e-02
7.813021702838063298e-01 -7.396664627913034085e-02
7.913188647746243198e-01 -8.501247008730937471e-02
8.013355592654424209e-01 -9.564981486170937020e-02
8.113522537562604109e-01 -1.058550029170875345e-01
8.213689482470784009e-01 -1.156056450080876347e-01
8.313856427378965019e-01 -1.248806994621189104e-01
8.414023372287144920e-01 -1.336605182377607060e-01
8.514190317195325930e-01 -1.419268677650148691e-01
8.614357262103505830e-01 -1.496630081447657967e-01
8.714524207011685730e-01 -1.568537494584613945e-01
8.814691151919866741e-01 -1.634854928200405177e-01
8.914858096828046641e-01 -1.695462869747021428e-01
9.015025041736226541e-01 -1.750259020246682784e-01
9.115191986644407551e-01 -1.799158074532795082e-01
9.215358931552587451e-01 -1.842091808598403935e-01
9.315525876460767352e-01 -1.879009231439754957e-01
9.415692821368948362e-01 -1.909876582346935192e-01
9.515859766277128262e-01 -1.934677280933432553e-01
9.616026711185308162e-01 -1.953412167359838136e-01
9.716193656093489173e-01 -1.966099501386251724e-01
9.816360601001669073e-01 -1.972774880098962236e-01
9.916527545909850083e-01 -1.973491196205519049e-01
1.001669449081802998e+00 -1.968318488419820433e-01
1.011686143572620988e+00 -1.957343547788834015e-01
1.021702838063438978e+00 -1.940669613145183658e-01
1.031719532554257190e+00 -1.918416037986078182e-01
1.041736227045075180e+00 -1.890718060659945798e-01
1.051752921535893170e+00 -1.857726404048502811e-01
1.061769616026711160e+00 -1.819606617239133417e-01
1.071786310517529150e+00 -1.776538533963824551e-01
1.081803005008347141e+00 -1.728715688827358876e-01
1.091819699499165353e+00 -1.676344532173888180e-01
1.101836393989983343e+00 -1.619643841601339784e-01
1.111853088480801333e+00 -1.558844214960566354e-01
1.121869782971619323e+00 -1.494187361256126279e-01
1.131886477462437313e+00 -1.425925374634428033e-01
1.141903171953255303e+00 -1.354320157360852650e-01
1.151919866444073515e+00 -1.279642402287622660e-01
1.161936560934891505e+00 -1.202170547653747673e-01
1.171953255425709495e+00 -1.122189901103305409e-01
1.181969949916527485e+00 -1.039991737699947627e-01
1.191986644407345475e+00 -9.558723714749875477e-02
1.202003338898163687e+00 -8.701323848447245490e-02
1.212020033388981677e+00 -7.830757556277440079e-02
1.222036727879799667e+00 -6.950089131693679145e-02
1.232053422370617657e+00 -6.062397898964612397e-02
1.242070116861435647e+00 -5.170768154364958902e-02
1.252086811352253637e+00 -4.278278027553889667e-02
1.262103505843071849e+00 -3.387989589181990280e-02
1.272120200333889839e+00 -2.502939356629315520e-02
1.282136894824707829e+00 -1.626129067394162936e-02
1.292153589315525819e+00 -7.605173744540266040e-03
1.302170283806343809e+00 9.098894763627334275e-04
1.312186978297162021e+00 9.255440563886357941e-03
1.322203672787980011e+00 1.740371874954081341e-02
1.332220367278798001e+00 2.532774543420111130e-02
1.342237061769615991e+00 3.300140718112405669e-02
1.352253756260433981e+00 4.039954299245783476e-02
1.362270450751251971e+00 4.749802291496981604e-02
1.372287145242070183e+00 5.427382246288903894e-02
1.382303839732888173e+00 6.070511153773482105e-02
1.392320534223706163e+00 6.677134085138576591e-02
1.402337228714524153e+00 7.245327534744569475e-02
1.412353923205342143e+00 7.773304766927432996e-02
1.422370617696160355e+00 8.259421035965927582e-02
1.432387312186978345e+00 8.702175561855880759e-02
1.442404006677796335e+00 9.100214587550706224e-02
1.452420701168614325e+00 9.452339034655471428e-02
1.462437395659432315e+00 9.757508315589832892e-02
1.472454090150250305e+00 1.001484346987528695e-01
1.482470784641068517e+00 1.022363291444170763e-01
1.492487479131886507e+00 1.038333441470399299e-01
1.502504173622704498e+00 1.049357294744531210e-01
1.512520868113522488e+00 1.055414127005054742e-01
1.522537562604340478e+00 1.056499991309309966e-01
1.532554257095158468e+00 1.052627408986349100e-01
1.542570951585976680e+00 1.043825369539283926e-01
1.552587646076794670e+00 1.030139422727778808e-01
1.562604340567612660e+00 1.011631493757870898e-01
1.572621035058430650e+00 9.883796706626882256e-02
1.582637729549248640e+00 9.604781700621055351e-02
1.592654424040066852e+00 9.280368185912188372e-02
1.602671118530884842e+00 8.911804662329646243e-02
1.612687813021702832e+00 8.500485273953295451e-02
1.622704507512520822e+00 8.047944485098723622e-02
1.632721202003338812e+00 7.555850174000133812e-02
1.642737896494156802e+00 7.025999362345072830e-02
1.652754590984975014e+00 6.460312853661701049e-02
1.662771285475793004e+00 5.860828602104699303e-02
1.672787979966610994e+00 5.229694785284266095e-02
1.682804674457428984e+00 4.569162474009129393e-02
1.692821368948246974e+00 3.881577064801606386e-02
1.702838063439065186e+00 3.169369988285383050e-02
1.712854757929883176e+00 2.435050348928669700e-02
1.722871452420701166e+00 1.681196563153581833e-02
1.732888146911519156e+00 9.104482637781357787e-03
1.742904841402337146e+00 1.254969534711601262e-03
1.752921535893155136e+00 -6.709232521776723260e-03
1.762938230383973348e+00 -1.476044881509215589e-02
1.772954924874791338e+00 -2.287076780877965801e-02
1.782971619365609328e+00 -3.101214049922321192e-02
1.792988313856427318e+00 -3.915646962149237770e-02
1.803005008347245308e+00 -4.727570339299169005e-02
1.813021702838063520e+00 -5.534192996217239535e-02
1.823038397328881510e+00 -6.332747124268814365e-02
1.833055091819699500e+00 -7.120497627742797264e-02
1.843071786310517490e+00 -7.894751336766239747e-02
1.853088480801335480e+00 -8.652866021637017901e-02
1.863105175292153470e+00 -9.392259198729298320e-02
1.873121869782971682e+00 -1.011041596455854591e-01
1.883138564273789672e+00 -1.080489702004991948e-01
1.893155258764607662e+00 -1.147334760986753605e-01
1.903171953255425652e+00 -1.211350540779093793e-01
1.913188647746243642e+00 -1.272320811661457607e-01
1.923205342237061632e+00 -1.330040241444506721e-01
1.933222036727879845e+00 -1.384315084506106686e-01
1.943238731218697835e+00 -1.434963667842800161e-01
1.953255425709515825e+00 -1.481816979997971628e-01
1.963272120200333815e+00 -1.524719206289537610e-01
1.973288814691151805e+00 -1.563528043422697245e-01
1.983305509181970017e+00 -1.598115208951528810e-01
1.993322203672788007e+00 -1.628366986878637124e-01
2.003338898163605997e+00 -1.654184596922911865e-01
2.013355592654423987e+00 -1.675484510617774037e-01
2.023372287145241977e+00 -1.692198715796004727e-01
2.033388981636059967e+00 -1.704274928600394146e-01
2.043405676126877957e+00 -1.711676752334572726e-01
2.053422370617695947e+00 -1.714383782645796661e-01
2.063439065108514381e+00 -1.712391658710576137e-01
2.073455759599332371e+00 -1.705712060274274799e-01
2.083472454090150361e+00 -1.694372650576463080e-01
2.093489148580968351e+00 -1.678416965374445735e-01
2.103505843071786341e+00 -1.657904248457207630e-01
2.113522537562604331e+00 -1.632909234220519257e-01
2.123539232053422321e+00 -1.603521878050571947e-01
2.133555926544240311e+00 -1.569847035437472726e-01
2.143572621035058301e+00 -1.532004090910898397e-01
2.153589315525876291e+00 -1.490126538057364725e-01
2.163606010016694281e+00 -1.444361512041575091e-01
2.173622704507512271e+00 -1.394869276212335196e-01
2.183639398998330705e+00 -1.341822664526391984e-01
2.193656093489148695e+00 -1.285406481670433032e-01
2.203672787979966685e+00 -1.225816862901974030e-01
2.213689482470784675e+00 -1.163260595763738192e-01
2.223706176961602665e+00 -1.097954405952420720e-01
2.233722871452420655e+00 -1.030124209741573871e-01
2.243739565943238645e+00 -9.600043354690082631e-02
2.253756260434056635e+00 -8.878367167012193861e-02
2.263772954924874625e+00 -8.138700597808219694e-02
2.273789649415692615e+00 -7.383589885471932013e-02
2.283806343906510605e+00 -6.615631690953958921e-02
2.293823038397329039e+00 -5.837464175037497538e-02
2.303839732888147029e+00 -5.051757935158009138e-02
2.313856427378965019e+00 -4.261206832076815110e-02
2.323873121869783009e+00 -3.468518737073484487e-02
2.333889816360600999e+00 -2.676406230567810601e-02
2.343906510851418989e+00 -1.887577283229992589e-02
2.353923205342236979e+00 -1.104725950679338008e-02
2.363939899833054969e+00 -3.305231128088338168e-03
2.373956594323872960e+00 4.323927113919543049e-03
2.383973288814690950e+00 1.181424442911103989e-02
2.393989983305508940e+00 1.914025385453189607e-02
2.404006677796327374e+00 2.627708002078568694e-02
2.414023372287145364e+00 3.320052496550514320e-02
2.424040066777963354e+00 3.988715170862564691e-02
2.434056761268781344e+00 4.631436531178077798e-02
2.444073455759599334e+00 5.246049115267696628e-02
2.454090150250417324e+00 5.830484994481157507e-02
2.464106844741235314e+00 6.382782771354457430e-02
2.474123539232053304e+00 6.901094354753246896e-02
2.484140233722871294e+00 7.383691490188927509e-02
2.494156928213689284e+00 7.828971871898592061e-02
2.504173622704507274e+00 8.235464841161124760e-02
2.514190317195325708e+00 8.601836651788566379e-02
2.524207011686143698e+00 8.926895284940937481e-02
2.534223706176961688e+00 9.209594796876199863e-02
2.544240400667779678e+00 9.449039184765087307e-02
2.554257095158597668e+00 9.644485757266414716e-02
2.564273789649415658e+00 9.795347998170421400e-02
2.574290484140233648e+00 9.901197913066131506e-02
2.584307178631051638e+00 9.961767850671296443e-02
2.594323873121869628e+00 9.976951792174511280e-02
2.604340567612687618e+00 9.946806103670248478e-02
2.614357262103505608e+00 9.871549748517295664e-02
2.624373956594324042e+00 9.751563958209989724e-02
2.634390651085142032e+00 9.587391362115461890e-02
2.644407345575960022e+00 9.379734578194577621e-02
2.654424040066778012e+00 9.129454268579619003e-02
2.664440734557596002e+00 8.837566665626825357e-02
2.674457429048413992e+00 8.505240575787768875e-02
2.684474123539231982e+00 8.133793870345715216e-02
2.694490818030049972e+00 7.724689473736126577e-02
2.704507512520867962e+00 7.279530861808888864e-02
2.714524207011685952e+00 6.800057083987308404e-02
2.724540901502503942e+00 6.288137324832325514e-02
2.734557595993322376e+00 5.745765022021798174e-02
2.744574290484140366e+00 5.175051559202888118e-02
2.754590984974958356e+00 4.578219553561264921e-02
2.764607679465776346e+00 3.957595759274815106e-02
2.774624373956594336e+00 3.315603609272502195e-02
2.784641068447412326e+00 2.654755418901177597e-02
2.794657762938230317e+00 1.977644276206029506e-02
2.804674457429048307e+00 1.286935644558020141e-02
2.814691151919866297e+00 5.853587042993563076e-03
2.824707846410684287e+00 -1.243025390641654690e-03
2.834724540901502277e+00 -8.392183518306992052e-03
2.844741235392320711e+00 -1.556522545261278950e-02
2.854757929883138701e+00 -2.273321895380733468e-02
2.864774624373956691e+00 -2.986705679386336340e-02
2.874791318864774681e+00 -3.693755298238764195e-02
2.884808013355592671e+00 -4.391553954721915537e-02
2.894824707846410661e+00 -5.077196356062531335e-02
2.904841402337228651e+00 -5.747798410110683404e-02
2.914858096828046641e+00 -6.400506884085756243e-02
2.924874791318864631e+00 -7.032508994999731033e-02
2.934891485809682621e+00 -7.641041901073765408e-02
2.944908180300500611e+00 -8.223401895132491368e-02
2.954924874791319045e+00 -8.776952964357394305e-02
2.964941569282137035e+00 -9.299136218635524476e-02
2.974958263772955025e+00 -9.787478904201264707e-02
2.984974958263773015e+00 -1.023960299858584638e-01
2.994991652754591005e+00 -1.065323353781642834e-01
3.005008347245408995e+00 -1.102620664890752444e-01
3.015025041736226985e+00 -1.135647726156244902e-01
3.025041736227044975e+00 -1.164212647396739991e-01
3.035058430717862965e+00 -1.188136854860267488e-01
3.045075125208680955e+00 -1.207255751511578379e-01
3.055091819699498945e+00 -1.221419335849236176e-01
3.065108514190316935e+00 -1.230492777202225468e-01
3.075125208681135369e+00 -1.234356945588403753e-01
3.085141903171953359e+00 -1.232908894355816132e-01
3.095158597662771349e+00 -1.226062293972215722e-01
3.105175292153589339e+00 -1.213747815477680403e-01
3.115191986644407329e+00 -1.195913462269545396e-01
3.125208681135225319e+00 -1.172524849047280188e-01
3.135225375626043309e+00 -1.143565426907362376e-01
3.145242070116861299e+00 -1.109036653743599721e-01
3.155258764607679289e+00 -1.068958109276636759e-01
3.165275459098497279e+00 -1.023367554206923158e-01
3.175292153589315269e+00 -9.723209331573738623e-02
3.185308848080133703e+00 -9.158923212453379259e-02
3.195325542570951693e+00 -8.541738142973168135e-02
3.205342237061769683e+00 -7.872753628936443593e-02
3.215358931552587674e+00 -7.153245506039243584e-02
3.225375626043405664e+00 -6.384663169462194421e-02
3.235392320534223654e+00 -5.568626257738695101e-02
3.245409015025041644e+00 -4.706920799624836338e-02
3.255425709515859634e+00 -3.801494834357106722e-02
3.265442404006677624e+00 -2.854453517313568917e-02
3.275459098497495614e+00 -1.868053724686501160e-02
3.285475792988313604e+00 -8.446981723269755826e-03
3.295492487479132038e+00 2.130709345739207825e-03
3.305509181969950028e+00 1.302578702846463737e-02
3.315525876460768018e+00 2.421024784228216487e-02
3.325542570951586008e+00 3.565491018913527488e-02
3.335559265442403998e+00 4.732949467633036644e-02
3.345575959933221988e+00 5.920270808917601352e-02
3.355592654424039978e+00 7.124233077066553788e-02
3.365609348914857968e+00 8.341530715275412289e-02
3.375626043405675958e+00 9.568783917394203808e-02
3.385642737896493948e+00 1.080254823088393629e-01
3.395659432387311938e+00 1.203932439271805238e-01
3.405676126878130372e+00 1.327556836924128625e-01
3.415692821368948362e+00 1.450770157035277952e-01
3.425709515859766352e+00 1.573212120756993515e-01
3.435726210350584342e+00 1.694521058608135511e-01
3.445742904841402332e+00 1.814334921685347157e-01
3.455759599332220322e+00 1.932292364733301793e-01
3.465776293823038312e+00 2.048033815586043083e-01
3.475792988313856302e+00 2.161202537560794612e-01
3.485809682804674292e+00 2.271445687984042228e-01
3.495826377295492282e+00 2.378415369702505666e-01
3.505843071786310272e+00 2.481769672447660946e-01
3.515859766277128706e+00 2.581173700947781979e-01
3.525876460767946696e+00 2.676300586716275354e-01
3.535893155258764686e+00 2.766832480489031520e-01
3.545909849749582676e+00 2.852461522336417477e-01
3.555926544240400666e+00 2.932890786537640238e-01
3.565943238731218656e+00 3.007835198375817254e-01
3.575959933222036646e+00 3.077022420091276023e-01
3.585976627712854636e+00 3.140193703318173157e-01
3.595993322203672626e+00 3.197104705424962390e-01
3.606010016694490616e+00 3.247526267282530577e-01
3.616026711185308606e+00 3.291245150094515570e-01
3.626043405676127040e+00 3.328064729042015668e-01
3.636060100166945031e+00 3.357805641619420745e-01
3.646076794657763021e+00 3.380306388669051532e-01
3.656093489148581011e+00 3.395423886258893131e-01
3.666110183639399001e+00 3.403033966690340306e-01
3.676126878130216991e+00 3.403031827070217563e-01
3.686143572621034981e+00 3.395332424033590257e-01
3.696160267111852971e+00 3.379870813360285053e-01
3.706176961602670961e+00 3.356602433388328754e-01
3.716193656093488951e+00 3.325503331290798337e-01
3.726210350584306941e+00 3.286570331449040760e-01
3.736227045075125375e+00 3.239821145323681373e-01
3.746243739565943365e+00 3.185294422395219538e-01
3.756260434056761355e+00 3.123049741917663935e-01
3.766277128547579345e+00 3.053167545401133665e-01
3.776293823038397335e+00 2.975749009911972109e-01
3.786310517529215325e+00 2.890915862451399199e-01
3.796327212020033315e+00 2.798810135845438696e-01
3.806343906510851305e+00 2.699593866749225302e-01
3.816360601001669295e+00 2.593448736537479760e-01
3.826377295492487285e+00 2.480575656019255448e-01
3.836393989983305275e+00 2.361194295078749283e-01
3.846410684474123265e+00 2.235542558504256816e-01
3.856427378964941699e+00 2.103876009424031079e-01
3.866444073455759689e+00 1.966467241920297759e-01
3.876460767946577679e+00 1.823605204540435232e-01
3.886477462437395669e+00 1.675594476567285607e-01
3.896494156928213659e+00 1.522754499047666576e-01
3.906510851419031649e+00 1.365418762709798006e-01
3.916527545909849639e+00 1.203933954794295241e-01
3.926544240400667629e+00 1.038659049809875085e-01
