 #  Scattering amplitudes (in cm)      MU=(1-cos(TH))/2
 #  Z =   6,   projectile: electron
 #  Kinetic energy = 3.70000E+06 eV
 #
 # TH (deg)      MU          Re(F)        Im(F)        Re(G)        Im(G)
 #--------------------------------------------------------------------------
  0.000E+00  0.00000E+00  2.04033E-07  4.13975E-09  0.00000E+00  0.00000E+00
  1.000E-04  7.61557E-13  2.04033E-07  4.13975E-09  1.56445E-13  3.17425E-15
  1.250E-04  1.18994E-12  2.04033E-07  4.13975E-09  1.95557E-13  3.96782E-15
  1.500E-04  1.71346E-12  2.04033E-07  4.13974E-09  2.34668E-13  4.76138E-15
  1.750E-04  2.33225E-12  2.04032E-07  4.13974E-09  2.73779E-13  5.55494E-15
  2.000E-04  3.04617E-12  2.04032E-07  4.13974E-09  3.12889E-13  6.34850E-15
  2.250E-04  3.85530E-12  2.04032E-07  4.13974E-09  3.52000E-13  7.14206E-15
  2.500E-04  4.75964E-12  2.04031E-07  4.13974E-09  3.91111E-13  7.93562E-15
  2.750E-04  5.75917E-12  2.04031E-07  4.13974E-09  4.30221E-13  8.72918E-15
  3.000E-04  6.85391E-12  2.04031E-07  4.13974E-09  4.69331E-13  9.52274E-15
  3.250E-04  8.04379E-12  2.04030E-07  4.13974E-09  5.08441E-13  1.03163E-14
  3.500E-04  9.32893E-12  2.04030E-07  4.13973E-09  5.47550E-13  1.11099E-14
  3.750E-04  1.07092E-11  2.04029E-07  4.13973E-09  5.86659E-13  1.19034E-14
  4.000E-04  1.21847E-11  2.04028E-07  4.13973E-09  6.25768E-13  1.26970E-14
  4.250E-04  1.37554E-11  2.04028E-07  4.13973E-09  6.64877E-13  1.34905E-14
  4.500E-04  1.54213E-11  2.04027E-07  4.13972E-09  7.03985E-13  1.42841E-14
  4.750E-04  1.71823E-11  2.04027E-07  4.13972E-09  7.43092E-13  1.50776E-14
  5.000E-04  1.90386E-11  2.04026E-07  4.13972E-09  7.82200E-13  1.58712E-14
  5.250E-04  2.09900E-11  2.04025E-07  4.13972E-09  8.21307E-13  1.66647E-14
  5.500E-04  2.30367E-11  2.04024E-07  4.13971E-09  8.60413E-13  1.74583E-14
  5.750E-04  2.51785E-11  2.04023E-07  4.13971E-09  8.99519E-13  1.82518E-14
  6.000E-04  2.74156E-11  2.04023E-07  4.13971E-09  9.38625E-13  1.90453E-14
  6.250E-04  2.97478E-11  2.04022E-07  4.13970E-09  9.77730E-13  1.98389E-14
  6.500E-04  3.21752E-11  2.04021E-07  4.13970E-09  1.01683E-12  2.06324E-14
  6.750E-04  3.46979E-11  2.04020E-07  4.13969E-09  1.05594E-12  2.14259E-14
  7.000E-04  3.73157E-11  2.04019E-07  4.13969E-09  1.09504E-12  2.22195E-14
  7.250E-04  4.00286E-11  2.04018E-07  4.13969E-09  1.13414E-12  2.30130E-14
  7.500E-04  4.28368E-11  2.04017E-07  4.13968E-09  1.17325E-12  2.38065E-14
  7.750E-04  4.57402E-11  2.04015E-07  4.13968E-09  1.21235E-12  2.46001E-14
  8.000E-04  4.87388E-11  2.04014E-07  4.13967E-09  1.25145E-12  2.53936E-14
  8.250E-04  5.18325E-11  2.04013E-07  4.13967E-09  1.29055E-12  2.61871E-14
  8.500E-04  5.50215E-11  2.04012E-07  4.13966E-09  1.32965E-12  2.69806E-14
  8.750E-04  5.83057E-11  2.04011E-07  4.13966E-09  1.36875E-12  2.77741E-14
  9.000E-04  6.16850E-11  2.04009E-07  4.13965E-09  1.40785E-12  2.85676E-14
  9.250E-04  6.51595E-11  2.04008E-07  4.13965E-09  1.44694E-12  2.93611E-14
  9.500E-04  6.87293E-11  2.04007E-07  4.13964E-09  1.48604E-12  3.01547E-14
  9.750E-04  7.23943E-11  2.04005E-07  4.13964E-09  1.52513E-12  3.09482E-14
  1.000E-03  7.61544E-11  2.04004E-07  4.13963E-09  1.56423E-12  3.17417E-14
  1.250E-03  1.18991E-10  2.03987E-07  4.13956E-09  1.95513E-12  3.96764E-14
  1.500E-03  1.71347E-10  2.03967E-07  4.13948E-09  2.34592E-12  4.76108E-14
  1.750E-03  2.33223E-10  2.03943E-07  4.13939E-09  2.73658E-12  5.55446E-14
  2.000E-03  3.04617E-10  2.03915E-07  4.13928E-09  3.12710E-12  6.34779E-14
  2.250E-03  3.85531E-10  2.03884E-07  4.13915E-09  3.51745E-12  7.14105E-14
  2.500E-03  4.75965E-10  2.03849E-07  4.13901E-09  3.90760E-12  7.93423E-14
  2.750E-03  5.75917E-10  2.03810E-07  4.13886E-09  4.29755E-12  8.72733E-14
  3.000E-03  6.85389E-10  2.03767E-07  4.13869E-09  4.68726E-12  9.52033E-14
  3.250E-03  8.04380E-10  2.03721E-07  4.13851E-09  5.07671E-12  1.03132E-13
  3.500E-03  9.32891E-10  2.03672E-07  4.13831E-09  5.46589E-12  1.11060E-13
  3.750E-03  1.07092E-09  2.03618E-07  4.13810E-09  5.85478E-12  1.18987E-13
  4.000E-03  1.21847E-09  2.03561E-07  4.13787E-09  6.24335E-12  1.26913E-13
  4.250E-03  1.37554E-09  2.03500E-07  4.13763E-09  6.63158E-12  1.34837E-13
  4.500E-03  1.54213E-09  2.03436E-07  4.13737E-09  7.01945E-12  1.42759E-13
  4.750E-03  1.71823E-09  2.03368E-07  4.13710E-09  7.40695E-12  1.50681E-13
  5.000E-03  1.90386E-09  2.03296E-07  4.13681E-09  7.79404E-12  1.58600E-13
  5.250E-03  2.09900E-09  2.03221E-07  4.13651E-09  8.18071E-12  1.66518E-13
  5.500E-03  2.30367E-09  2.03142E-07  4.13620E-09  8.56695E-12  1.74434E-13
  5.750E-03  2.51785E-09  2.03060E-07  4.13587E-09  8.95272E-12  1.82349E-13
  6.000E-03  2.74156E-09  2.02974E-07  4.13552E-09  9.33801E-12  1.90261E-13
  6.250E-03  2.97478E-09  2.02884E-07  4.13516E-09  9.72280E-12  1.98171E-13
  6.500E-03  3.21752E-09  2.02791E-07  4.13479E-09  1.01071E-11  2.06079E-13
  6.750E-03  3.46978E-09  2.02694E-07  4.13440E-09  1.04908E-11  2.13985E-13
  7.000E-03  3.73156E-09  2.02594E-07  4.13400E-09  1.08739E-11  2.21889E-13
  7.250E-03  4.00286E-09  2.02490E-07  4.13358E-09  1.12565E-11  2.29791E-13
  7.500E-03  4.28368E-09  2.02382E-07  4.13315E-09  1.16385E-11  2.37690E-13
  7.750E-03  4.57402E-09  2.02271E-07  4.13270E-09  1.20199E-11  2.45586E-13
  8.000E-03  4.87388E-09  2.02157E-07  4.13224E-09  1.24006E-11  2.53480E-13
  8.250E-03  5.18326E-09  2.02039E-07  4.13176E-09  1.27806E-11  2.61371E-13
  8.500E-03  5.50215E-09  2.01917E-07  4.13127E-09  1.31600E-11  2.69259E-13
  8.750E-03  5.83057E-09  2.01792E-07  4.13077E-09  1.35387E-11  2.77145E-13
  9.000E-03  6.16850E-09  2.01664E-07  4.13025E-09  1.39166E-11  2.85028E-13
  9.250E-03  6.51596E-09  2.01532E-07  4.12972E-09  1.42938E-11  2.92907E-13
  9.500E-03  6.87293E-09  2.01396E-07  4.12917E-09  1.46703E-11  3.00784E-13
  9.750E-03  7.23942E-09  2.01258E-07  4.12861E-09  1.50460E-11  3.08657E-13
  1.000E-02  7.61544E-09  2.01115E-07  4.12803E-09  1.54209E-11  3.16527E-13
  1.250E-02  1.18991E-08  1.99507E-07  4.12147E-09  1.91220E-11  3.95030E-13
  1.500E-02  1.71347E-08  1.97574E-07  4.11348E-09  2.27240E-11  4.73117E-13
  1.750E-02  2.33223E-08  1.95333E-07  4.10408E-09  2.62107E-11  5.50709E-13
  2.000E-02  3.04617E-08  1.92804E-07  4.09329E-09  2.95673E-11  6.27727E-13
  2.250E-02  3.85531E-08  1.90010E-07  4.08114E-09  3.27812E-11  7.04096E-13
  2.500E-02  4.75965E-08  1.86974E-07  4.06764E-09  3.58415E-11  7.79741E-13
  2.750E-02  5.75917E-08  1.83720E-07  4.05283E-09  3.87395E-11  8.54593E-13
  3.000E-02  6.85389E-08  1.80273E-07  4.03675E-09  4.14684E-11  9.28583E-13
  3.250E-02  8.04380E-08  1.76658E-07  4.01941E-09  4.40233E-11  1.00165E-12
  3.500E-02  9.32891E-08  1.72900E-07  4.00087E-09  4.64012E-11  1.07372E-12
  3.750E-02  1.07092E-07  1.69024E-07  3.98115E-09  4.86009E-11  1.14474E-12
  4.000E-02  1.21847E-07  1.65052E-07  3.96030E-09  5.06228E-11  1.21466E-12
  4.250E-02  1.37554E-07  1.61008E-07  3.93836E-09  5.24687E-11  1.28343E-12
  4.500E-02  1.54213E-07  1.56911E-07  3.91537E-09  5.41416E-11  1.35099E-12
  4.750E-02  1.71823E-07  1.52783E-07  3.89137E-09  5.56459E-11  1.41731E-12
  5.000E-02  1.90386E-07  1.48641E-07  3.86641E-09  5.69866E-11  1.48233E-12
  5.250E-02  2.09900E-07  1.44502E-07  3.84053E-09  5.81698E-11  1.54603E-12
  5.500E-02  2.30367E-07  1.40381E-07  3.81378E-09  5.92021E-11  1.60837E-12
  5.750E-02  2.51785E-07  1.36292E-07  3.78622E-09  6.00904E-11  1.66933E-12
  6.000E-02  2.74156E-07  1.32248E-07  3.75787E-09  6.08422E-11  1.72887E-12
  6.250E-02  2.97478E-07  1.28258E-07  3.72880E-09  6.14652E-11  1.78697E-12
  6.500E-02  3.21752E-07  1.24332E-07  3.69905E-09  6.19671E-11  1.84362E-12
  6.750E-02  3.46978E-07  1.20478E-07  3.66866E-09  6.23557E-11  1.89880E-12
  7.000E-02  3.73156E-07  1.16702E-07  3.63769E-09  6.26388E-11  1.95250E-12
  7.250E-02  4.00286E-07  1.13011E-07  3.60617E-09  6.28239E-11  2.00472E-12
  7.500E-02  4.28368E-07  1.09408E-07  3.57416E-09  6.29184E-11  2.05543E-12
  7.750E-02  4.57402E-07  1.05898E-07  3.54170E-09  6.29296E-11  2.10466E-12
  8.000E-02  4.87388E-07  1.02482E-07  3.50883E-09  6.28643E-11  2.15239E-12
  8.250E-02  5.18325E-07  9.91633E-08  3.47560E-09  6.27293E-11  2.19863E-12
  8.500E-02  5.50215E-07  9.59422E-08  3.44205E-09  6.25308E-11  2.24339E-12
  8.750E-02  5.83057E-07  9.28194E-08  3.40822E-09  6.22748E-11  2.28668E-12
  9.000E-02  6.16850E-07  8.97951E-08  3.37415E-09  6.19670E-11  2.32850E-12
  9.250E-02  6.51596E-07  8.68687E-08  3.33988E-09  6.16128E-11  2.36887E-12
  9.500E-02  6.87293E-07  8.40394E-08  3.30545E-09  6.12171E-11  2.40782E-12
  9.750E-02  7.23942E-07  8.13060E-08  3.27089E-09  6.07845E-11  2.44534E-12
  1.000E-01  7.61543E-07  7.86669E-08  3.23624E-09  6.03196E-11  2.48148E-12
  1.250E-01  1.18991E-06  5.70050E-08  2.89142E-09  5.46373E-11  2.77135E-12
  1.500E-01  1.71347E-06  4.22534E-08  2.56565E-09  4.85982E-11  2.95093E-12
  1.750E-01  2.33223E-06  3.22069E-08  2.27243E-09  4.32170E-11  3.04930E-12
  2.000E-01  3.04617E-06  2.52512E-08  2.01623E-09  3.87240E-11  3.09202E-12
  2.250E-01  3.85531E-06  2.03191E-08  1.79606E-09  3.50555E-11  3.09868E-12
  2.500E-01  4.75964E-06  1.67280E-08  1.60833E-09  3.20668E-11  3.08310E-12
  2.750E-01  5.75916E-06  1.40431E-08  1.44852E-09  2.96119E-11  3.05445E-12
  3.000E-01  6.85388E-06  1.19846E-08  1.31219E-09  2.75687E-11  3.01851E-12
  3.250E-01  8.04378E-06  1.03698E-08  1.19532E-09  2.58420E-11  2.97880E-12
  3.500E-01  9.32888E-06  9.07682E-09  1.09451E-09  2.43599E-11  2.93742E-12
  3.750E-01  1.07092E-05  8.02268E-09  1.00697E-09  2.30688E-11  2.89552E-12
  4.000E-01  1.21846E-05  7.14963E-09  9.30417E-10  2.19290E-11  2.85375E-12
  4.250E-01  1.37553E-05  6.41663E-09  8.63008E-10  2.09109E-11  2.81244E-12
  4.500E-01  1.54212E-05  5.79388E-09  8.03268E-10  1.99922E-11  2.77175E-12
  4.750E-01  1.71822E-05  5.25936E-09  7.50002E-10  1.91560E-11  2.73173E-12
  5.000E-01  1.90385E-05  4.79648E-09  7.02246E-10  1.83896E-11  2.69241E-12
  5.250E-01  2.09899E-05  4.39249E-09  6.59213E-10  1.76828E-11  2.65380E-12
  5.500E-01  2.30365E-05  4.03750E-09  6.20256E-10  1.70277E-11  2.61588E-12
  5.750E-01  2.51783E-05  3.72367E-09  5.84842E-10  1.64181E-11  2.57865E-12
  6.000E-01  2.74153E-05  3.44474E-09  5.52528E-10  1.58486E-11  2.54209E-12
  6.250E-01  2.97475E-05  3.19564E-09  5.22940E-10  1.53152E-11  2.50622E-12
  6.500E-01  3.21749E-05  2.97220E-09  4.95764E-10  1.48142E-11  2.47102E-12
  6.750E-01  3.46974E-05  2.77100E-09  4.70731E-10  1.43426E-11  2.43650E-12
  7.000E-01  3.73152E-05  2.58917E-09  4.47613E-10  1.38978E-11  2.40265E-12
  7.250E-01  4.00281E-05  2.42430E-09  4.26211E-10  1.34776E-11  2.36948E-12
  7.500E-01  4.28362E-05  2.27435E-09  4.06352E-10  1.30800E-11  2.33699E-12
  7.750E-01  4.57395E-05  2.13759E-09  3.87888E-10  1.27033E-11  2.30516E-12
  8.000E-01  4.87380E-05  2.01253E-09  3.70688E-10  1.23459E-11  2.27401E-12
  8.250E-01  5.18317E-05  1.89787E-09  3.54635E-10  1.20065E-11  2.24352E-12
  8.500E-01  5.50205E-05  1.79253E-09  3.39627E-10  1.16837E-11  2.21369E-12
  8.750E-01  5.83045E-05  1.69551E-09  3.25575E-10  1.13764E-11  2.18452E-12
  9.000E-01  6.16838E-05  1.60599E-09  3.12396E-10  1.10836E-11  2.15599E-12
  9.250E-01  6.51582E-05  1.52322E-09  3.00020E-10  1.08044E-11  2.12810E-12
  9.500E-01  6.87277E-05  1.44654E-09  2.88381E-10  1.05379E-11  2.10083E-12
  9.750E-01  7.23925E-05  1.37539E-09  2.77421E-10  1.02833E-11  2.07418E-12
  1.000E+00  7.61524E-05  1.30925E-09  2.67088E-10  1.00398E-11  2.04813E-12
  1.100E+00  9.21439E-05  1.08648E-09  2.31138E-10  9.16479E-12  1.94972E-12
  1.200E+00  1.09658E-04  9.15276E-10  2.02118E-10  8.42257E-12  1.85994E-12
  1.300E+00  1.28695E-04  7.81037E-10  1.78345E-10  7.78630E-12  1.77795E-12
  1.400E+00  1.49255E-04  6.73954E-10  1.58618E-10  7.23569E-12  1.70295E-12
  1.500E+00  1.71338E-04  5.87237E-10  1.42062E-10  6.75510E-12  1.63417E-12
  1.600E+00  1.94942E-04  5.16076E-10  1.28029E-10  6.33237E-12  1.57094E-12
  1.700E+00  2.20070E-04  4.56991E-10  1.16026E-10  5.95793E-12  1.51266E-12
  1.800E+00  2.46720E-04  4.07416E-10  1.05677E-10  5.62414E-12  1.45880E-12
  1.900E+00  2.74892E-04  3.65429E-10  9.66887E-11  5.32485E-12  1.40889E-12
  2.000E+00  3.04586E-04  3.29565E-10  8.88303E-11  5.05508E-12  1.36252E-12
  2.100E+00  3.35803E-04  2.98695E-10  8.19180E-11  4.81073E-12  1.31934E-12
  2.200E+00  3.68542E-04  2.71939E-10  7.58043E-11  4.58844E-12  1.27903E-12
  2.300E+00  4.02802E-04  2.48600E-10  7.03694E-11  4.38537E-12  1.24131E-12
  2.400E+00  4.38585E-04  2.28123E-10  6.55150E-11  4.19917E-12  1.20595E-12
  2.500E+00  4.75889E-04  2.10060E-10  6.11605E-11  4.02785E-12  1.17272E-12
  2.600E+00  5.14715E-04  1.94047E-10  5.72386E-11  3.86971E-12  1.14143E-12
  2.700E+00  5.55063E-04  1.79787E-10  5.36930E-11  3.72330E-12  1.11193E-12
  2.800E+00  5.96931E-04  1.67034E-10  5.04766E-11  3.58736E-12  1.08405E-12
  2.900E+00  6.40321E-04  1.55583E-10  4.75492E-11  3.46084E-12  1.05767E-12
  3.000E+00  6.85233E-04  1.45264E-10  4.48767E-11  3.34278E-12  1.03266E-12
  3.100E+00  7.31665E-04  1.35933E-10  4.24300E-11  3.23238E-12  1.00892E-12
  3.200E+00  7.79618E-04  1.27467E-10  4.01840E-11  3.12891E-12  9.86351E-13
  3.300E+00  8.29092E-04  1.19764E-10  3.81169E-11  3.03175E-12  9.64868E-13
  3.400E+00  8.80086E-04  1.12735E-10  3.62101E-11  2.94034E-12  9.44390E-13
  3.500E+00  9.32601E-04  1.06303E-10  3.44471E-11  2.85419E-12  9.24848E-13
  3.600E+00  9.86636E-04  1.00404E-10  3.28135E-11  2.77286E-12  9.06177E-13
  3.700E+00  1.04219E-03  9.49788E-11  3.12969E-11  2.69596E-12  8.88319E-13
  3.800E+00  1.09927E-03  8.99796E-11  2.98862E-11  2.62314E-12  8.71219E-13
  3.900E+00  1.15786E-03  8.53627E-11  2.85715E-11  2.55409E-12  8.54829E-13
  4.000E+00  1.21797E-03  8.10901E-11  2.73443E-11  2.48851E-12  8.39104E-13
  4.100E+00  1.27961E-03  7.71286E-11  2.61968E-11  2.42617E-12  8.24004E-13
  4.200E+00  1.34276E-03  7.34487E-11  2.51222E-11  2.36681E-12  8.09491E-13
  4.300E+00  1.40743E-03  7.00244E-11  2.41143E-11  2.31025E-12  7.95530E-13
  4.400E+00  1.47362E-03  6.68328E-11  2.31676E-11  2.25628E-12  7.82088E-13
  4.500E+00  1.54133E-03  6.38531E-11  2.22773E-11  2.20473E-12  7.69138E-13
  4.600E+00  1.61056E-03  6.10672E-11  2.14387E-11  2.15544E-12  7.56651E-13
  4.700E+00  1.68131E-03  5.84585E-11  2.06480E-11  2.10827E-12  7.44602E-13
  4.800E+00  1.75357E-03  5.60125E-11  1.99016E-11  2.06308E-12  7.32968E-13
  4.900E+00  1.82735E-03  5.37159E-11  1.91960E-11  2.01976E-12  7.21726E-13
  5.000E+00  1.90265E-03  5.15568E-11  1.85284E-11  1.97819E-12  7.10858E-13
  5.100E+00  1.97947E-03  4.95245E-11  1.78960E-11  1.93826E-12  7.00343E-13
  5.200E+00  2.05780E-03  4.76093E-11  1.72964E-11  1.89989E-12  6.90164E-13
  5.300E+00  2.13765E-03  4.58024E-11  1.67273E-11  1.86298E-12  6.80305E-13
  5.400E+00  2.21902E-03  4.40957E-11  1.61866E-11  1.82745E-12  6.70750E-13
  5.500E+00  2.30190E-03  4.24821E-11  1.56724E-11  1.79322E-12  6.61486E-13
  5.600E+00  2.38630E-03  4.09548E-11  1.51830E-11  1.76023E-12  6.52498E-13
  5.700E+00  2.47222E-03  3.95080E-11  1.47169E-11  1.72841E-12  6.43774E-13
  5.800E+00  2.55965E-03  3.81359E-11  1.42725E-11  1.69770E-12  6.35302E-13
  5.900E+00  2.64859E-03  3.68336E-11  1.38485E-11  1.66805E-12  6.27071E-13
  6.000E+00  2.73905E-03  3.55965E-11  1.34436E-11  1.63939E-12  6.19070E-13
  6.100E+00  2.83103E-03  3.44202E-11  1.30567E-11  1.61168E-12  6.11290E-13
  6.200E+00  2.92452E-03  3.33009E-11  1.26867E-11  1.58488E-12  6.03721E-13
  6.300E+00  3.01952E-03  3.22349E-11  1.23327E-11  1.55893E-12  5.96354E-13
  6.400E+00  3.11604E-03  3.12190E-11  1.19937E-11  1.53381E-12  5.89182E-13
  6.500E+00  3.21407E-03  3.02499E-11  1.16689E-11  1.50947E-12  5.82195E-13
  6.600E+00  3.31362E-03  2.93250E-11  1.13574E-11  1.48587E-12  5.75388E-13
  6.700E+00  3.41468E-03  2.84416E-11  1.10586E-11  1.46298E-12  5.68752E-13
  6.800E+00  3.51725E-03  2.75972E-11  1.07717E-11  1.44078E-12  5.62282E-13
  6.900E+00  3.62133E-03  2.67896E-11  1.04961E-11  1.41923E-12  5.55970E-13
  7.000E+00  3.72692E-03  2.60167E-11  1.02313E-11  1.39830E-12  5.49811E-13
  7.100E+00  3.83403E-03  2.52765E-11  9.97665E-12  1.37796E-12  5.43799E-13
  7.200E+00  3.94265E-03  2.45672E-11  9.73162E-12  1.35820E-12  5.37929E-13
  7.300E+00  4.05278E-03  2.38871E-11  9.49575E-12  1.33899E-12  5.32196E-13
  7.400E+00  4.16442E-03  2.32346E-11  9.26857E-12  1.32030E-12  5.26595E-13
  7.500E+00  4.27757E-03  2.26084E-11  9.04966E-12  1.30211E-12  5.21120E-13
  7.600E+00  4.39223E-03  2.20069E-11  8.83862E-12  1.28441E-12  5.15768E-13
  7.700E+00  4.50840E-03  2.14289E-11  8.63506E-12  1.26718E-12  5.10535E-13
  7.800E+00  4.62608E-03  2.08732E-11  8.43863E-12  1.25039E-12  5.05415E-13
  7.900E+00  4.74527E-03  2.03387E-11  8.24901E-12  1.23403E-12  5.00407E-13
  8.000E+00  4.86597E-03  1.98242E-11  8.06586E-12  1.21808E-12  4.95505E-13
  8.100E+00  4.98817E-03  1.93289E-11  7.88890E-12  1.20254E-12  4.90707E-13
  8.200E+00  5.11188E-03  1.88518E-11  7.71784E-12  1.18737E-12  4.86008E-13
  8.300E+00  5.23711E-03  1.83920E-11  7.55243E-12  1.17258E-12  4.81407E-13
  8.400E+00  5.36383E-03  1.79487E-11  7.39241E-12  1.15814E-12  4.76899E-13
  8.500E+00  5.49207E-03  1.75210E-11  7.23755E-12  1.14405E-12  4.72481E-13
  8.600E+00  5.62181E-03  1.71084E-11  7.08763E-12  1.13029E-12  4.68152E-13
  8.700E+00  5.75306E-03  1.67100E-11  6.94243E-12  1.11685E-12  4.63908E-13
  8.800E+00  5.88581E-03  1.63253E-11  6.80175E-12  1.10371E-12  4.59747E-13
  8.900E+00  6.02007E-03  1.59536E-11  6.66541E-12  1.09088E-12  4.55666E-13
  9.000E+00  6.15583E-03  1.55943E-11  6.53323E-12  1.07833E-12  4.51663E-13
  9.100E+00  6.29310E-03  1.52469E-11  6.40503E-12  1.06607E-12  4.47735E-13
  9.200E+00  6.43187E-03  1.49109E-11  6.28066E-12  1.05407E-12  4.43880E-13
  9.300E+00  6.57214E-03  1.45858E-11  6.15996E-12  1.04234E-12  4.40097E-13
  9.400E+00  6.71392E-03  1.42711E-11  6.04279E-12  1.03085E-12  4.36383E-13
  9.500E+00  6.85720E-03  1.39664E-11  5.92901E-12  1.01961E-12  4.32736E-13
  9.600E+00  7.00198E-03  1.36713E-11  5.81849E-12  1.00861E-12  4.29154E-13
  9.700E+00  7.14827E-03  1.33853E-11  5.71110E-12  9.97841E-13  4.25636E-13
  9.800E+00  7.29605E-03  1.31081E-11  5.60673E-12  9.87291E-13  4.22180E-13
  9.900E+00  7.44534E-03  1.28394E-11  5.50525E-12  9.76957E-13  4.18784E-13
  1.000E+01  7.59612E-03  1.25788E-11  5.40657E-12  9.66833E-13  4.15447E-13
  1.025E+01  7.97965E-03  1.19605E-11  5.17142E-12  9.42395E-13  4.07349E-13
  1.050E+01  8.37255E-03  1.13864E-11  4.95160E-12  9.19135E-13  3.99584E-13
  1.075E+01  8.77480E-03  1.08522E-11  4.74580E-12  8.96969E-13  3.92131E-13
  1.100E+01  9.18641E-03  1.03544E-11  4.55282E-12  8.75822E-13  3.84972E-13
  1.125E+01  9.60736E-03  9.88980E-12  4.37162E-12  8.55626E-13  3.78088E-13
  1.150E+01  1.00376E-02  9.45542E-12  4.20124E-12  8.36318E-13  3.71464E-13
  1.175E+01  1.04773E-02  9.04876E-12  4.04081E-12  8.17841E-13  3.65084E-13
  1.200E+01  1.09262E-02  8.66750E-12  3.88958E-12  8.00143E-13  3.58935E-13
  1.225E+01  1.13844E-02  8.30958E-12  3.74684E-12  7.83175E-13  3.53003E-13
  1.250E+01  1.18520E-02  7.97314E-12  3.61196E-12  7.66894E-13  3.47278E-13
  1.275E+01  1.23288E-02  7.65650E-12  3.48437E-12  7.51258E-13  3.41748E-13
  1.300E+01  1.28150E-02  7.35813E-12  3.36354E-12  7.36230E-13  3.36403E-13
  1.325E+01  1.33104E-02  7.07667E-12  3.24899E-12  7.21776E-13  3.31233E-13
  1.350E+01  1.38150E-02  6.81086E-12  3.14029E-12  7.07863E-13  3.26229E-13
  1.375E+01  1.43290E-02  6.55957E-12  3.03705E-12  6.94461E-13  3.21384E-13
  1.400E+01  1.48521E-02  6.32176E-12  2.93890E-12  6.81544E-13  3.16690E-13
  1.425E+01  1.53845E-02  6.09649E-12  2.84550E-12  6.69084E-13  3.12139E-13
  1.450E+01  1.59262E-02  5.88289E-12  2.75656E-12  6.57058E-13  3.07725E-13
  1.475E+01  1.64770E-02  5.68018E-12  2.67178E-12  6.45445E-13  3.03441E-13
  1.500E+01  1.70371E-02  5.48763E-12  2.59091E-12  6.34222E-13  2.99282E-13
