# iamxed --xrd --signal-type static --signal-geoms c3.xyz --reference-geoms cycbut.xyz --qmin 0.0 --qmax 6.0 --npoints 600 --export xrd_diff --log-to-file-disable --plot-disable
# 	q (Bohr⁻¹)		dI/I (%)
0.000000000000000000e+00 0.000000000000000000e+00
1.001669449081802991e-02 -2.320502548240649787e+01
2.003338898163605983e-02 -5.389407000598522046e+01
3.005008347245408801e-02 -5.113163436331235800e+01
4.006677796327211966e-02 -4.049325757157509997e+01
5.008347245409015130e-02 -4.654017248182385202e+01
6.010016694490817601e-02 -5.011513340787694659e+01
7.011686143572620766e-02 -4.391860888410258212e+01
8.013355592654423931e-02 -4.437757765157636669e+01
9.015025041736227096e-02 -4.859909223883017404e+01
1.001669449081803026e-01 -4.556145347461578865e+01
1.101836393989983343e-01 -4.349318078815579725e+01
1.202003338898163520e-01 -4.680634746888928532e+01
1.302170283806343976e-01 -4.619424442527362373e+01
1.402337228714524153e-01 -4.322103004096432244e+01
1.502504173622704609e-01 -4.497317699310949735e+01
1.602671118530884786e-01 -4.597719885897248560e+01
1.702838063439064964e-01 -4.320380430625534274e+01
1.803005008347245419e-01 -4.329532944109425330e+01
1.903171953255425597e-01 -4.503094647043909049e+01
2.003338898163606052e-01 -4.314128852782057066e+01
2.103505843071786230e-01 -4.188454331289006660e+01
2.203672787979966685e-01 -4.352440340700027122e+01
2.303839732888146863e-01 -4.277985124179410548e+01
2.404006677796327041e-01 -4.074655992897052670e+01
2.504173622704507496e-01 -4.166765106507324390e+01
2.604340567612687951e-01 -4.194239826635615742e+01
2.704507512520867851e-01 -3.978435241423436253e+01
2.804674457429048307e-01 -3.967109730786782507e+01
2.904841402337228762e-01 -4.055139461748255769e+01
3.005008347245409217e-01 -3.882388317175193038e+01
3.105175292153589117e-01 -3.769649459164835292e+01
3.205342237061769572e-01 -3.863121710738369785e+01
3.305509181969950028e-01 -3.765802422550935091e+01
3.405676126878129928e-01 -3.582002448203637357e+01
3.505843071786310383e-01 -3.628982765086821871e+01
3.606010016694490838e-01 -3.609972710546698949e+01
3.706176961602671294e-01 -3.401823168213008586e+01
3.806343906510851194e-01 -3.368080900972091030e+01
3.906510851419031649e-01 -3.402740025255368295e+01
4.006677796327212104e-01 -3.217808800575073747e+01
4.106844741235392005e-01 -3.095292078381899259e+01
4.207011686143572460e-01 -3.140930376392440593e+01
4.307178631051752915e-01 -3.012908130369638826e+01
4.407345575959933370e-01 -2.820217380658807116e+01
4.507512520868113270e-01 -2.830303693685925381e+01
4.607679465776293726e-01 -2.769127195690764864e+01
4.707846410684474181e-01 -2.544082835737065906e+01
4.808013355592654081e-01 -2.483029643593611269e+01
4.908180300500834536e-01 -2.472555938639066397e+01
5.008347245409014992e-01 -2.259116865432658727e+01
5.108514190317194892e-01 -2.113279460080278938e+01
5.208681135225375902e-01 -2.117129583571009022e+01
5.308848080133555802e-01 -1.950637465550193639e+01
5.409015025041735703e-01 -1.732268628390508169e+01
5.509181969949916713e-01 -1.706156934068440023e+01
5.609348914858096613e-01 -1.601491023417159099e+01
5.709515859766276513e-01 -1.344343797039390864e+01
5.809682804674457524e-01 -1.251113927040592344e+01
5.909849749582637424e-01 -1.197582822184060269e+01
6.010016694490818434e-01 -9.453747975026329797e+00
6.110183639398998334e-01 -7.679573099295112115e+00
6.210350584307178234e-01 -7.328324843196078575e+00
6.310517529215359245e-01 -5.241529937430546404e+00
6.410684474123539145e-01 -2.721033319954963225e+00
6.510851419031719045e-01 -2.120675372113351997e+00
6.611018363939900055e-01 -6.673559520134636491e-01
6.711185308848079956e-01 2.262103589789552061e+00
6.811352253756259856e-01 3.491993898088616266e+00
6.911519198664440866e-01 4.374000620410116724e+00
7.011686143572620766e-01 7.243878477930691950e+00
7.111853088480801777e-01 9.281405211317109050e+00
7.212020033388981677e-01 9.892227673463766635e+00
7.312186978297161577e-01 1.226500105624057291e+01
7.412353923205342587e-01 1.500117224518172421e+01
7.512520868113522488e-01 1.576233463792530465e+01
7.612687813021702388e-01 1.738836183456320583e+01
7.712854757929883398e-01 2.044536376381887166e+01
7.813021702838063298e-01 2.172647473516659389e+01
7.913188647746243198e-01 2.263346021607063818e+01
8.013355592654424209e-01 2.548684102802579687e+01
8.113522537562604109e-01 2.743877649049482059e+01
8.213689482470784009e-01 2.791094497544960262e+01
8.313856427378965019e-01 3.007517005342548089e+01
8.414023372287144920e-01 3.254056108712974549e+01
8.514190317195325930e-01 3.298852271996580754e+01
8.614357262103505830e-01 3.419522249069472508e+01
8.714524207011685730e-01 3.674380307319865580e+01
8.814691151919866741e-01 3.751494661383702578e+01
8.914858096828046641e-01 3.780725390875144853e+01
9.015025041736226541e-01 3.989028359741180907e+01
9.115191986644407551e-01 4.109921472296026934e+01
9.215358931552587451e-01 4.079474693657518003e+01
9.315525876460767352e-01 4.195904673947570274e+01
9.415692821368948362e-01 4.342037554298734392e+01
9.515859766277128262e-01 4.295676524221411796e+01
9.616026711185308162e-01 4.302610293888756132e+01
9.716193656093489173e-01 4.432840289633956132e+01
9.816360601001669073e-01 4.406109898333419750e+01
9.916527545909850083e-01 4.319788699523038389e+01
1.001669449081802998e+00 4.388322063870170098e+01
1.011686143572620988e+00 4.392673114611171314e+01
1.021702838063438978e+00 4.254331255379184284e+01
1.031719532554257190e+00 4.230961190792942972e+01
1.041736227045075180e+00 4.250136378698497452e+01
1.051752921535893170e+00 4.107148948323569471e+01
1.061769616026711160e+00 3.990789465181729412e+01
1.071786310517529150e+00 3.991183015993384942e+01
1.081803005008347141e+00 3.877427876197300094e+01
1.091819699499165353e+00 3.696384545045262371e+01
1.101836393989983343e+00 3.644994414772470037e+01
1.111853088480801333e+00 3.568714294747996973e+01
1.121869782971619323e+00 3.367632766677330380e+01
1.131886477462437313e+00 3.248425145277693105e+01
1.141903171953255303e+00 3.192801034142047456e+01
1.151919866444073515e+00 3.013857961796108498e+01
1.161936560934891505e+00 2.835716568024759709e+01
1.171953255425709495e+00 2.771038728494420411e+01
1.181969949916527485e+00 2.638417113937160963e+01
1.191986644407345475e+00 2.431696102401513926e+01
1.202003338898163687e+00 2.331883296595320942e+01
1.212020033388981677e+00 2.245039572107501868e+01
1.222036727879799667e+00 2.048556686800085558e+01
1.232053422370617657e+00 1.904092359325194295e+01
1.242070116861435647e+00 1.841863085987398918e+01
1.252086811352253637e+00 1.687091790018596882e+01
1.262103505843071849e+00 1.509482587397118003e+01
1.272120200333889839e+00 1.442566134883315776e+01
1.282136894824707829e+00 1.342332804567792692e+01
1.292153589315525819e+00 1.159134395825857844e+01
1.302170283806343809e+00 1.064630306804771109e+01
1.312186978297162021e+00 1.010204747523134117e+01
1.322203672787980011e+00 8.532986828042119498e+00
1.332220367278798001e+00 7.249254623319879798e+00
1.342237061769615991e+00 6.917750059631519122e+00
1.352253756260433981e+00 5.842477753000356877e+00
1.362270450751251971e+00 4.345974924690740870e+00
1.372287145242070183e+00 3.939836743237337124e+00
1.382303839732888173e+00 3.412739495409727208e+00
1.392320534223706163e+00 1.960154922154728752e+00
1.402337228714524153e+00 1.274709980707793289e+00
1.412353923205342143e+00 1.160974638595202890e+00
1.422370617696160355e+00 3.040862498668487485e-02
1.432387312186978345e+00 -9.736674032991126104e-01
1.442404006677796335e+00 -9.360804487539878815e-01
1.452420701168614325e+00 -1.560039517606323756e+00
1.462437395659432315e+00 -2.745749064220031954e+00
1.472454090150250305e+00 -2.837057361209648576e+00
1.482470784641068517e+00 -2.937508817964852970e+00
1.492487479131886507e+00 -4.052067188620819493e+00
1.502504173622704498e+00 -4.458736027426883020e+00
1.512520868113522488e+00 -4.192445506071631023e+00
1.522537562604340478e+00 -4.972587943562260193e+00
1.532554257095158468e+00 -5.716217812418225463e+00
1.542570951585976680e+00 -5.351789196020208195e+00
1.552587646076794670e+00 -5.631425565860402216e+00
1.562604340567612660e+00 -6.564097024157939053e+00
1.572621035058430650e+00 -6.377552781049631747e+00
1.582637729549248640e+00 -6.155608489797447902e+00
1.592654424040066852e+00 -7.021549143101927015e+00
1.602671118530884842e+00 -7.190607747525326943e+00
1.612687813021702832e+00 -6.633973777423795681e+00
1.622704507512520822e+00 -7.172511728038380774e+00
1.632721202003338812e+00 -7.710107988433216875e+00
1.642737896494156802e+00 -7.091682755959534568e+00
1.652754590984975014e+00 -7.141345312946974389e+00
1.662771285475793004e+00 -7.893124480922668162e+00
1.672787979966610994e+00 -7.489364402180267000e+00
1.682804674457428984e+00 -7.053320320141390098e+00
1.692821368948246974e+00 -7.759341901473860936e+00
1.702838063439065186e+00 -7.746673257901159459e+00
1.712854757929883176e+00 -6.994790118311938976e+00
1.722871452420701166e+00 -7.391428130681118702e+00
1.732888146911519156e+00 -7.781046475476932400e+00
1.742904841402337146e+00 -6.988187776273726115e+00
1.752921535893155136e+00 -6.911150745597989697e+00
1.762938230383973348e+00 -7.546820355016688353e+00
1.772954924874791338e+00 -6.991216086417878728e+00
1.782971619365609328e+00 -6.440449147645427530e+00
1.792988313856427318e+00 -7.059673096058613595e+00
1.803005008347245308e+00 -6.920139442670825147e+00
1.813021702838063520e+00 -6.062264963271426055e+00
1.823038397328881510e+00 -6.397263944011724490e+00
1.833055091819699500e+00 -6.688138414568984835e+00
1.843071786310517490e+00 -5.795898925146167890e+00
1.853088480801335480e+00 -5.675966565754320570e+00
1.863105175292153470e+00 -6.244006764133014364e+00
1.873121869782971682e+00 -5.596007442735223769e+00
1.883138564273789672e+00 -5.012692484756607669e+00
1.893155258764607662e+00 -5.596582242195231593e+00
1.903171953255425652e+00 -5.375379225819871820e+00
1.913188647746243642e+00 -4.486384795218524957e+00
1.923205342237061632e+00 -4.815876848212743866e+00
1.933222036727879845e+00 -5.042575276349861468e+00
1.943238731218697835e+00 -4.113575901823670833e+00
1.953255425709515825e+00 -4.010717297620097099e+00
1.963272120200333815e+00 -4.540060683013254383e+00
1.973288814691151805e+00 -3.847011493419937533e+00
1.983305509181970017e+00 -3.291716671543073236e+00
1.993322203672788007e+00 -3.868617497027460050e+00
2.003338898163605997e+00 -3.597525855676179773e+00
2.013355592654423987e+00 -2.733714677711156060e+00
2.023372287145241977e+00 -3.089174839959097696e+00
2.033388981636059967e+00 -3.270574692919532733e+00
2.043405676126877957e+00 -2.351778137501335131e+00
2.053422370617695947e+00 -2.301932529752574563e+00
2.063439065108514381e+00 -2.803538042357412330e+00
2.073455759599332371e+00 -2.099383696105747710e+00
2.083472454090150361e+00 -1.611087088970325487e+00
2.093489148580968351e+00 -2.189945314869662596e+00
2.103505843071786341e+00 -1.888929503952196942e+00
2.113522537562604331e+00 -1.088740876334754359e+00
2.123539232053422321e+00 -1.482186079340481966e+00
2.133555926544240311e+00 -1.626445134157826544e+00
2.143572621035058301e+00 -7.514029556054067083e-01
2.153589315525876291e+00 -7.725147991127190306e-01
2.163606010016694281e+00 -1.247473064483842986e+00
2.173622704507512271e+00 -5.575038839053306772e-01
2.183639398998330705e+00 -1.601729313910167374e-01
2.193656093489148695e+00 -7.407235071815498895e-01
2.203672787979966685e+00 -4.254178398763746038e-01
2.213689482470784675e+00 2.835910625819215714e-01
2.223706176961602665e+00 -1.510663926946946012e-01
2.233722871452420655e+00 -2.650241621898319910e-01
2.243739565943238645e+00 5.389795924018637718e-01
2.253756260434056635e+00 4.375424071610869992e-01
2.263772954924874625e+00 -1.126877822826681703e-02
2.273789649415692615e+00 6.416498536497240446e-01
2.283806343906510605e+00 9.324477221393656645e-01
2.293823038397329039e+00 3.524277310714337696e-01
2.303839732888147029e+00 6.660013040561370001e-01
2.313856427378965019e+00 1.263129929401390905e+00
2.323873121869783009e+00 7.872873512433197218e-01
2.333889816360600999e+00 6.937411530132006066e-01
2.343906510851418989e+00 1.402101099253391325e+00
2.353923205342236979e+00 1.213220042778765162e+00
2.363939899833054969e+00 7.838979656865294743e-01
2.373956594323872960e+00 1.373470044121732236e+00
2.383973288814690950e+00 1.541304215077177853e+00
2.393989983305508940e+00 9.555468815897715240e-01
2.404006677796327374e+00 1.243053320797803396e+00
2.414023372287145364e+00 1.704737487293335851e+00
2.424040066777963354e+00 1.180856425481626282e+00
2.434056761268781344e+00 1.089594338948796537e+00
2.444073455759599334e+00 1.676716459336325293e+00
2.454090150250417324e+00 1.393058310540857381e+00
2.464106844741235314e+00 9.734662943864034190e-01
2.474123539232053304e+00 1.476128298075624734e+00
2.484140233722871294e+00 1.511782096399417963e+00
2.494156928213689284e+00 9.171453861543743535e-01
2.504173622704507274e+00 1.158685823284047567e+00
2.514190317195325708e+00 1.471557517894554135e+00
2.524207011686143698e+00 8.990981539504138143e-01
2.534223706176961688e+00 7.948703983630477365e-01
2.544240400667779678e+00 1.243158582962334835e+00
2.554257095158597668e+00 8.636561113272983592e-01
2.564273789649415658e+00 4.447408663339560420e-01
2.574290484140233648e+00 8.418798375223610631e-01
2.584307178631051638e+00 7.430076643971275097e-01
2.594323873121869628e+00 1.384954349982725763e-01
2.604340567612687618e+00 3.198066823582305096e-01
2.614357262103505608e+00 4.815718466507677986e-01
2.624373956594324042e+00 -1.315590509310136658e-01
2.634390651085142032e+00 -2.538315258879198510e-01
2.644407345575960022e+00 5.527013532131513918e-02
2.654424040066778012e+00 -4.043880457527060934e-01
2.664440734557596002e+00 -8.158431894700772791e-01
2.674457429048413992e+00 -5.205982501504052840e-01
2.684474123539231982e+00 -7.326701083463443842e-01
2.694490818030049972e+00 -1.327821891227055406e+00
2.704507512520867962e+00 -1.196831171700752261e+00
2.714524207011685952e+00 -1.161184793118550607e+00
2.724540901502503942e+00 -1.784499144154932493e+00
2.734557595993322376e+00 -1.906632013293230621e+00
2.744574290484140366e+00 -1.709429367221688700e+00
2.754590984974958356e+00 -2.210065800995890228e+00
2.764607679465776346e+00 -2.586293240266381410e+00
2.774624373956594336e+00 -2.363681432593441212e+00
2.784641068447412326e+00 -2.644291453792779745e+00
2.794657762938230317e+00 -3.192660903155680074e+00
2.804674457429048307e+00 -3.080478140024481171e+00
2.814691151919866297e+00 -3.124279728322044480e+00
2.824707846410684287e+00 -3.712080117128124801e+00
2.834724540901502277e+00 -3.799571879015493092e+00
2.844741235392320711e+00 -3.668432756508600789e+00
2.854757929883138701e+00 -4.158462760017467730e+00
2.864774624373956691e+00 -4.460906909441611390e+00
2.874791318864774681e+00 -4.267462424370627616e+00
2.884808013355592671e+00 -4.562059079646131998e+00
2.894824707846410661e+00 -5.020025373572608807e+00
2.904841402337228651e+00 -4.885446443188640409e+00
2.914858096828046641e+00 -4.954056514413958112e+00
2.924874791318864631e+00 -5.457246790430517080e+00
2.934891485809682621e+00 -5.469638296292854029e+00
2.944908180300500611e+00 -5.352186778887435104e+00
2.954924874791319045e+00 -5.777830680724946433e+00
2.964941569282137035e+00 -5.964608662327226973e+00
2.974958263772955025e+00 -5.751503689536837882e+00
2.984974958263773015e+00 -6.003633763984838723e+00
2.994991652754591005e+00 -6.326048901684366399e+00
3.005008347245408995e+00 -6.123925612667322937e+00
3.015025041736226985e+00 -6.161398760346091130e+00
3.025041736227044975e+00 -6.531680401306048545e+00
3.035058430717862965e+00 -6.427771666584113142e+00
3.045075125208680955e+00 -6.273140264687946832e+00
3.055091819699498945e+00 -6.585879533244401784e+00
3.065108514190316935e+00 -6.620407766830922469e+00
3.075125208681135369e+00 -6.346134103892721257e+00
3.085141903171953359e+00 -6.511319515086270826e+00
3.095158597662771349e+00 -6.666276657359499147e+00
3.105175292153589339e+00 -6.365937583450890003e+00
3.115191986644407329e+00 -6.334780539091640073e+00
3.125208681135225319e+00 -6.543295771739687794e+00
3.135225375626043309e+00 -6.300420802720219093e+00
3.145242070116861299e+00 -6.077957352107832278e+00
3.155258764607679289e+00 -6.249113913809926757e+00
3.165275459098497279e+00 -6.111373942553897542e+00
3.175292153589315269e+00 -5.750432113598477279e+00
3.185308848080133703e+00 -5.799141531210709744e+00
3.195325542570951693e+00 -5.765702285211568245e+00
3.205342237061769683e+00 -5.346563807580785976e+00
3.215358931552587674e+00 -5.219597009469799431e+00
3.225375626043405664e+00 -5.245101060727308528e+00
3.235392320534223654e+00 -4.848798603219901082e+00
3.245409015025041644e+00 -4.539206216913331815e+00
3.255425709515859634e+00 -4.551149911299680717e+00
3.265442404006677624e+00 -4.234184601877813314e+00
3.275459098497495614e+00 -3.779838185646108073e+00
3.285475792988313604e+00 -3.702905962968072728e+00
3.295492487479132038e+00 -3.482015008926347299e+00
3.305509181969950028e+00 -2.951214533619936908e+00
3.315525876460768018e+00 -2.731157750694946706e+00
3.325542570951586008e+00 -2.581885045054898242e+00
3.335559265442403998e+00 -2.051148273851900683e+00
3.345575959933221988e+00 -1.670588864598975931e+00
3.355592654424039978e+00 -1.538744387090418275e+00
3.365609348914857968e+00 -1.070208585575436189e+00
3.375626043405675958e+00 -5.523728286294875556e-01
3.385642737896493948e+00 -3.739455013312608656e-01
3.395659432387311938e+00 6.017340930797148704e-04
3.405676126878130372e+00 6.002642366156419884e-01
3.415692821368948362e+00 8.776399023195398108e-01
3.425709515859766352e+00 1.162114151917222005e+00
3.435726210350584342e+00 1.772972771121827940e+00
3.445742904841402332e+00 2.173611618744887064e+00
3.455759599332220322e+00 2.401694398601394109e+00
3.465776293823038312e+00 2.957646650314977421e+00
3.475792988313856302e+00 3.470785802404451559e+00
3.485809682804674292e+00 3.691544065710174127e+00
3.495826377295492282e+00 4.147339830455585741e+00
3.505843071786310272e+00 4.730643514075315359e+00
3.515859766277128706e+00 4.990823511913315969e+00
3.525876460767946696e+00 5.330665517264127296e+00
3.535893155258764686e+00 5.922190212444665924e+00
3.545909849749582676e+00 6.250715110013498332e+00
3.555926544240400666e+00 6.487608912216838775e+00
3.565943238731218656e+00 7.021963407977227511e+00
3.575959933222036646e+00 7.420853531029540484e+00
3.585976627712854636e+00 7.588072030131316481e+00
3.595993322203672626e+00 8.011891535012098942e+00
3.606010016694490616e+00 8.455443071975972558e+00
3.616026711185308606e+00 8.593520265230814914e+00
3.626043405676127040e+00 8.876282806526997859e+00
3.636060100166945031e+00 9.317797512258755077e+00
3.646076794657763021e+00 9.461173925402604823e+00
3.656093489148581011e+00 9.599265084363274525e+00
3.666110183639399001e+00 9.982731979589322791e+00
3.676126878130216991e+00 1.014958979514289084e+01
3.686143572621034981e+00 1.016361099396917744e+01
3.696160267111852971e+00 1.043695692028789779e+01
3.706176961602670961e+00 1.062438085068131066e+01
3.716193656093488951e+00 1.055125785490490742e+01
3.726210350584306941e+00 1.067788636787612688e+01
3.736227045075125375e+00 1.086276498459862339e+01
3.746243739565943365e+00 1.074501482521258566e+01
3.756260434056761355e+00 1.071136050590656552e+01
3.766277128547579345e+00 1.085635832139861456e+01
3.776293823038397335e+00 1.073117123339348922e+01
3.786310517529215325e+00 1.054907264740608852e+01
3.796327212020033315e+00 1.061204012743123748e+01
3.806343906510851305e+00 1.050239899641855956e+01
3.816360601001669295e+00 1.020605294026444376e+01
3.826377295492487285e+00 1.015080801245439446e+01
3.836393989983305275e+00 1.006039797015696990e+01
3.846410684474123265e+00 9.698573958383926552e+00
3.856427378964941699e+00 9.504807058751916671e+00
3.866444073455759689e+00 9.417836602980159455e+00
3.876460767946577679e+00 9.042860721730550111e+00
3.886477462437395669e+00 8.712933830113483324e+00
3.896494156928213659e+00 8.599146986690044514e+00
3.906510851419031649e+00 8.254932798768727764e+00
3.916527545909849639e+00 7.815695522934468009e+00
3.926544240400667629e+00 7.639745116591878826e+00
3.936560934891485619e+00 7.351675850934910272e+00
3.946577629382303609e+00 6.850284709618954970e+00
3.956594323873121599e+00 6.583394519124208699e+00
3.966611018363940033e+00 6.352828369402063302e+00
3.976627712854758023e+00 5.846955015904513608e+00
3.986644407345576013e+00 5.477798110547083432e+00
3.996661101836394003e+00 5.283115233930915089e+00
4.006677796327211993e+00 4.827597278749286680e+00
4.016694490818029983e+00 4.369040902754734113e+00
4.026711185308847973e+00 4.173491536786070100e+00
4.036727879799665963e+00 3.806879211741688085e+00
4.046744574290483953e+00 3.296027725481701864e+00
4.056761268781301943e+00 3.060558561455794191e+00
4.066777963272119933e+00 2.795522399250840007e+00
4.076794657762937923e+00 2.286290510212212190e+00
4.086811352253755913e+00 1.983721675861289002e+00
4.096828046744573903e+00 1.804555285559076516e+00
4.106844741235391893e+00 1.354371020318075436e+00
4.116861435726209884e+00 9.804824439091943677e-01
4.126878130217028762e+00 8.489822402767629450e-01
4.136894824707846752e+00 5.033304956818523967e-01
4.146911519198664742e+00 8.102437006549105536e-02
4.156928213689482732e+00 -5.059356142370770998e-02
4.166944908180300722e+00 -2.710027926411845978e-01
4.176961602671118712e+00 -6.962976190672304222e-01
4.186978297161936702e+00 -8.692052779706398447e-01
4.196994991652754692e+00 -9.743378147847049364e-01
4.207011686143572682e+00 -1.347046924273671564e+00
4.217028380634390672e+00 -1.581437501907692944e+00
4.227045075125208662e+00 -1.608602696769314999e+00
4.237061769616026652e+00 -1.879513922219775646e+00
4.247078464106844642e+00 -2.166850620330130983e+00
4.257095158597662632e+00 -2.168776127816555821e+00
4.267111853088480622e+00 -2.310408482044310929e+00
4.277128547579298612e+00 -2.615108587830773601e+00
4.287145242070116602e+00 -2.642973360090865143e+00
4.297161936560934592e+00 -2.658650242699335475e+00
4.307178631051752582e+00 -2.928976513642334911e+00
4.317195325542570572e+00 -3.015810087883074253e+00
4.327212020033388562e+00 -2.939167876224771270e+00
4.337228714524206552e+00 -3.123977456558687305e+00
4.347245409015024542e+00 -3.273927775433015608e+00
4.357262103505843420e+00 -3.158692781257419480e+00
4.367278797996661410e+00 -3.224581453627275440e+00
4.377295492487479400e+00 -3.411762979019600905e+00
4.387312186978297390e+00 -3.314926162065392923e+00
4.397328881469115380e+00 -3.257993506562481656e+00
4.407345575959933370e+00 -3.435491651677031300e+00
4.417362270450751360e+00 -3.399350471709720267e+00
4.427378964941569350e+00 -3.247470651222817750e+00
4.437395659432387340e+00 -3.363626129309686075e+00
4.447412353923205330e+00 -3.402694373373187808e+00
4.457429048414023320e+00 -3.207322289623341760e+00
4.467445742904841310e+00 -3.223861287477548299e+00
4.477462437395659300e+00 -3.321118641126789672e+00
4.487479131886477290e+00 -3.141235236065084813e+00
4.497495826377295280e+00 -3.047066366229782108e+00
4.507512520868113270e+00 -3.160887111227951074e+00
4.517529215358931260e+00 -3.044444654577373566e+00
4.527545909849749250e+00 -2.860340727980449582e+00
4.537562604340567241e+00 -2.939768120257882700e+00
4.547579298831385231e+00 -2.908935323629066705e+00
4.557595993322203221e+00 -2.681422656815175998e+00
4.567612687813021211e+00 -2.684532840488446759e+00
4.577629382303840089e+00 -2.729777342729060141e+00
4.587646076794658079e+00 -2.516302650107191230e+00
4.597662771285476069e+00 -2.425292506688126348e+00
4.607679465776294059e+00 -2.510277425189774814e+00
4.617696160267112049e+00 -2.360781611808214997e+00
4.627712854757930039e+00 -2.188553220724024140e+00
4.637729549248748029e+00 -2.264034714310942498e+00
4.647746243739566019e+00 -2.205319614102400294e+00
4.657762938230384009e+00 -1.991342555712214635e+00
4.667779632721201999e+00 -2.013098620434336627e+00
4.677796327212019989e+00 -2.041351371806274795e+00
4.687813021702837979e+00 -1.838391224035940574e+00
4.697829716193655969e+00 -1.782843309356902495e+00
4.707846410684473959e+00 -1.866740341325545227e+00
4.717863105175291949e+00 -1.723255477445163164e+00
4.727879799666109939e+00 -1.595355887566354491e+00
4.737896494156927929e+00 -1.688370880728252255e+00
4.747913188647745919e+00 -1.632832347590909450e+00
4.757929883138563909e+00 -1.463667755504783230e+00
4.767946577629381899e+00 -1.520980871902528619e+00
4.777963272120199889e+00 -1.553543441816904291e+00
4.787979966611017879e+00 -1.388843624690824674e+00
4.797996661101836757e+00 -1.382738278927215791e+00
4.808013355592654747e+00 -1.476900144898647405e+00
4.818030050083472737e+00 -1.360858795183120140e+00
4.828046744574290727e+00 -1.289251701657891047e+00
4.838063439065108717e+00 -1.402475574900024835e+00
4.848080133555926707e+00 -1.362808812974497741e+00
4.858096828046744697e+00 -1.248245737780688813e+00
4.868113522537562687e+00 -1.337346658982921266e+00
4.878130217028380677e+00 -1.376813453196241710e+00
4.888146911519198667e+00 -1.256822651907933741e+00
4.898163606010016657e+00 -1.292420803602847723e+00
4.908180300500834647e+00 -1.389443268381783447e+00
4.918196994991652637e+00 -1.302214988963059428e+00
4.928213689482470627e+00 -1.277204884958966780e+00
4.938230383973288617e+00 -1.394792960120198266e+00
4.948247078464106607e+00 -1.365617901275813617e+00
4.958263772954924598e+00 -1.295082402177450076e+00
4.968280467445742588e+00 -1.394307734217052674e+00
4.978297161936560578e+00 -1.427585919072621445e+00
4.988313856427378568e+00 -1.340869649221168247e+00
4.998330550918196558e+00 -1.393733950291543788e+00
5.008347245409014548e+00 -1.472997240767480731e+00
5.018363939899833426e+00 -1.401471824561054014e+00
5.028380634390651416e+00 -1.398618469186589053e+00
5.038397328881469406e+00 -1.493883410377312204e+00
5.048414023372287396e+00 -1.459249571325499595e+00
5.058430717863105386e+00 -1.410230517089140490e+00
5.068447412353923376e+00 -1.489341599967976659e+00
5.078464106844741366e+00 -1.496712634505993345e+00
5.088480801335559356e+00 -1.423485301729696451e+00
5.098497495826377346e+00 -1.462905066230984596e+00
5.108514190317195336e+00 -1.500751020769315325e+00
5.118530884808013326e+00 -1.427564109941475534e+00
5.128547579298831316e+00 -1.418685486124746209e+00
5.138564273789649306e+00 -1.464920828849306300e+00
5.148580968280467296e+00 -1.408826460859240459e+00
5.158597662771285286e+00 -1.357967271682591459e+00
5.168614357262103276e+00 -1.389164321042392514e+00
5.178631051752921266e+00 -1.354736983896038138e+00
5.188647746243739256e+00 -1.277616431990368673e+00
5.198664440734557246e+00 -1.277394691684028638e+00
5.208681135225375236e+00 -1.257215293880498130e+00
5.218697829716193226e+00 -1.170825932373930733e+00
5.228714524207011216e+00 -1.134189954675569378e+00
5.238731218697829206e+00 -1.114159419787449146e+00
5.248747913188648084e+00 -1.029716606618453767e+00
5.258764607679466074e+00 -9.621022727108854422e-01
5.268781302170284064e+00 -9.287257864308541278e-01
5.278797996661102054e+00 -8.485601682068690810e-01
5.288814691151920044e+00 -7.607148057255549434e-01
5.298831385642738034e+00 -7.069130951178458355e-01
5.308848080133556024e+00 -6.261886810108441281e-01
5.318864774624374014e+00 -5.277429761493804827e-01
5.328881469115192004e+00 -4.546900965630923941e-01
5.338898163606009994e+00 -3.665726864674067609e-01
5.348914858096827984e+00 -2.615428618009946748e-01
5.358931552587645974e+00 -1.760445777088794073e-01
5.368948247078463964e+00 -7.740389363899427555e-02
5.378964941569281955e+00 3.624403710305666715e-02
5.388981636060099945e+00 1.271484861884292772e-01
5.398998330550917935e+00 2.325786026347537172e-01
5.409015025041735925e+00 3.592558362785613912e-01
5.419031719532553915e+00 4.534308415773544709e-01
5.429048414023371905e+00 5.561967286564520885e-01
5.439065108514189895e+00 6.969684869868508770e-01
5.449081803005007885e+00 7.991153944415104737e-01
5.459098497495825875e+00 8.890686128172496927e-01
5.469115191986644753e+00 1.037106121509479228e+00
5.479131886477462743e+00 1.156098529883614612e+00
5.489148580968280733e+00 1.228802644871512584e+00
5.499165275459098723e+00 1.368860689280685605e+00
5.509181969949916713e+00 1.511419836433577135e+00
5.519198664440734703e+00 1.572467260175456572e+00
5.529215358931552693e+00 1.685411222894012795e+00
5.539232053422370683e+00 1.849118246882148986e+00
5.549248747913188673e+00 1.913559887068580156e+00
5.559265442404006663e+00 1.984449720672284201e+00
5.569282136894824653e+00 2.153866605648564914e+00
5.579298831385642643e+00 2.240097984377974250e+00
5.589315525876460633e+00 2.266273284766077367e+00
5.599332220367278623e+00 2.414940527450379015e+00
5.609348914858096613e+00 2.535115680531458970e+00
5.619365609348914603e+00 2.530149957297706642e+00
5.629382303839732593e+00 2.628735937412588264e+00
5.639398998330550583e+00 2.779857110401066755e+00
5.649415692821368573e+00 2.770601293115246833e+00
5.659432387312186563e+00 2.798509823828180476e+00
5.669449081803004553e+00 2.958706493803791915e+00
5.679465776293822543e+00 2.975509444459281561e+00
5.689482470784641421e+00 2.931150036165465878e+00
5.699499165275459411e+00 3.063938122445380774e+00
5.709515859766277401e+00 3.127355155954209653e+00
5.719532554257095391e+00 3.032130294761615996e+00
5.729549248747913381e+00 3.098180328784496673e+00
5.739565943238731371e+00 3.207609438698036275e+00
5.749582637729549361e+00 3.100778101361159944e+00
5.759599332220367351e+00 3.073235448590075691e+00
5.769616026711185341e+00 3.202851449053358834e+00
5.779632721202003331e+00 3.128092847989563108e+00
5.789649415692821321e+00 3.005340834099138103e+00
5.799666110183639312e+00 3.110210575009742850e+00
5.809682804674457302e+00 3.098462839351542097e+00
5.819699499165275292e+00 2.908514013385364638e+00
5.829716193656093282e+00 2.939718682905790637e+00
5.839732888146911272e+00 2.995046419103379876e+00
5.849749582637729262e+00 2.788614855699590223e+00
5.859766277128547252e+00 2.712205570900637852e+00
5.869782971619365242e+00 2.806944936569935933e+00
5.879799666110183232e+00 2.640693484099708943e+00
5.889816360601001222e+00 2.453109668240551322e+00
5.899833055091819212e+00 2.535319189027550379e+00
5.909849749582638090e+00 2.451018569768386612e+00
5.919866444073456080e+00 2.184307657990152141e+00
5.929883138564274070e+00 2.195761761193154804e+00
5.939899833055092060e+00 2.203322023161924825e+00
5.949916527545910050e+00 1.917048572041470722e+00
5.959933222036728040e+00 1.815547462248518373e+00
5.969949916527546030e+00 1.886999844616908728e+00
5.979966611018364020e+00 1.648846411569289350e+00
5.989983305509182010e+00 1.426362902274296296e+00
6.000000000000000000e+00 1.504034853610955791e+00
