# xed.py --xrd --calculation-type static --signal-geoms h2.xyz --qmin 0.0 --qmax 5.0 --npoints 500 --inelastic --export xrd_inelastic.out
0.000000000000000000e+00 4.000000000000000000e+00
1.002004008016032024e-02 4.000454491326223661e+00
2.004008016032064049e-02 4.000180888615036068e+00
3.006012024048096073e-02 3.999195038745145148e+00
4.008016032064128098e-02 3.997513314144507834e+00
5.010020040080159776e-02 3.995152582144156916e+00
6.012024048096192147e-02 3.992130174577114943e+00
7.014028056112224518e-02 3.988463857641012744e+00
8.016032064128256196e-02 3.984171802042631327e+00
9.018036072144287874e-02 3.979272553442362970e+00
1.002004008016031955e-01 3.973785003216105949e+00
1.102204408817635262e-01 3.967728359551780493e+00
1.202404809619238429e-01 3.961122118897295152e+00
1.302605210420841597e-01 3.953986037776290097e+00
1.402805611222444904e-01 3.946343241532493273e+00
1.503006012024047933e-01 3.938246483507703566e+00
1.603206412825651239e-01 3.929764531046924247e+00
1.703406813627254546e-01 3.920966006087934552e+00
1.803607214428857575e-01 3.911919141459361704e+00
1.903807615230460881e-01 3.902691710017373250e+00
2.004008016032063910e-01 3.893350936259028838e+00
2.104208416833667217e-01 3.883921896141451668e+00
2.204408817635270523e-01 3.874302777787706376e+00
2.304609218436873552e-01 3.864368913098434888e+00
2.404809619238476859e-01 3.853997207850151874e+00
2.505010020040079888e-01 3.843066281812567819e+00
2.605210420841683194e-01 3.831456628356153082e+00
2.705410821643286501e-01 3.819054537954305495e+00
2.805611222444889807e-01 3.805856219267871765e+00
2.905811623246493114e-01 3.791979690470740572e+00
3.006012024048095865e-01 3.777548269864666519e+00
3.106212424849699172e-01 3.762683848462288871e+00
3.206412825651302478e-01 3.747506730429063460e+00
3.306613226452905785e-01 3.732135493422072514e+00
3.406813627254509091e-01 3.716594884501732921e+00
3.507014028056111843e-01 3.701061991953085162e+00
3.607214428857715149e-01 3.685522012579254270e+00
3.707414829659318456e-01 3.669932279063013336e+00
3.807615230460921762e-01 3.654251604678901533e+00
3.907815631262525069e-01 3.638440278567858233e+00
4.008016032064127820e-01 3.622460090248674547e+00
4.108216432865731127e-01 3.606281890251988198e+00
4.208416833667334433e-01 3.589895619983879627e+00
4.308617234468937740e-01 3.573294678281294878e+00
4.408817635270541047e-01 3.556473295755623543e+00
4.509018036072144353e-01 3.539426508416273265e+00
4.609218436873747105e-01 3.522150131887818780e+00
4.709418837675350411e-01 3.504641378399900198e+00
4.809619238476953718e-01 3.486910202302934358e+00
4.909819639278557024e-01 3.468977597574360416e+00
5.010020040080159776e-01 3.450865012716795022e+00
5.110220440881763082e-01 3.432593928091137947e+00
5.210420841683366389e-01 3.414185814596701896e+00
5.310621242484969695e-01 3.395662094260909925e+00
5.410821643286573002e-01 3.377046416171961329e+00
5.511022044088176308e-01 3.358374381507282624e+00
5.611222444889779615e-01 3.339684995098468612e+00
5.711422845691382921e-01 3.321016550147673385e+00
5.811623246492986228e-01 3.302406589008072935e+00
5.911823647294588424e-01 3.283891870618234954e+00
6.012024048096191731e-01 3.265508033079792760e+00
6.112224448897795037e-01 3.247259515873215818e+00
6.212424849699398344e-01 3.229095570411200988e+00
6.312625250501001650e-01 3.210961306117937397e+00
6.412825651302604957e-01 3.192803738149408765e+00
6.513026052104208263e-01 3.174571794656534163e+00
6.613226452905811570e-01 3.156216328640143232e+00
6.713426853707414876e-01 3.137693923882420854e+00
6.813627254509018183e-01 3.119012193620955387e+00
6.913827655310621489e-01 3.100213234167562781e+00
7.014028056112223686e-01 3.081338878623059330e+00
7.114228456913826992e-01 3.062429932472069183e+00
7.214428857715430299e-01 3.043526142573909965e+00
7.314629258517033605e-01 3.024666170385622355e+00
7.414829659318636912e-01 3.005884254531748123e+00
7.515030060120240218e-01 2.987200410737551159e+00
7.615230460921843525e-01 2.968630820780723933e+00
7.715430861723446831e-01 2.950191235008269963e+00
7.815631262525050138e-01 2.931896962705803134e+00
7.915831663326653445e-01 2.913762863649438817e+00
8.016032064128255641e-01 2.895803312970305132e+00
8.116232464929858947e-01 2.878030860983699313e+00
8.216432865731462254e-01 2.860455702304042447e+00
8.316633266533065560e-01 2.843087538459303953e+00
8.416833667334668867e-01 2.825935728865385688e+00
8.517034068136272174e-01 2.809009287743895023e+00
8.617234468937875480e-01 2.792316881789430383e+00
8.717434869739478787e-01 2.775862278228132585e+00
8.817635270541082093e-01 2.759606416523781913e+00
8.917835671342685400e-01 2.743488496128823506e+00
9.018036072144288706e-01 2.727449948881350839e+00
9.118236472945890903e-01 2.711434681892109122e+00
9.218436873747494209e-01 2.695389078883122735e+00
9.318637274549097516e-01 2.679262030878680978e+00
9.418837675350700822e-01 2.663042297343302778e+00
9.519038076152304129e-01 2.646833114191796454e+00
9.619238476953907435e-01 2.630755088485798421e+00
9.719438877755510742e-01 2.614923716012900634e+00
9.819639278557114048e-01 2.599449414274505266e+00
9.919839679358717355e-01 2.584437601644023808e+00
1.002004008016031955e+00 2.569985240081429367e+00
1.012024048096192397e+00 2.556081452361893547e+00
1.022044088176352616e+00 2.542599715708130592e+00
1.032064128256513058e+00 2.529412580569287972e+00
1.042084168336673278e+00 2.516397993515183895e+00
1.052104208416833719e+00 2.503439213821237352e+00
1.062124248496993939e+00 2.490424781937253584e+00
1.072144288577154159e+00 2.477268007338838451e+00
1.082164328657314600e+00 2.464021998468249652e+00
1.092184368737474820e+00 2.450795242007428598e+00
1.102204408817635262e+00 2.437691604690448433e+00
1.112224448897795481e+00 2.424810106249023711e+00
1.122244488977955923e+00 2.412244966014506886e+00
1.132264529058116143e+00 2.400085558537496500e+00
1.142284569138276584e+00 2.388379043789316203e+00
1.152304609218436804e+00 2.377081942794531777e+00
1.162324649298597246e+00 2.366139971255079466e+00
1.172344689378757465e+00 2.355501185897749483e+00
1.182364729458917685e+00 2.345115918058847448e+00
1.192384769539078126e+00 2.334936717374416659e+00
1.202404809619238346e+00 2.324919754988317599e+00
1.212424849699398788e+00 2.315050468368571313e+00
1.222444889779559007e+00 2.305339022456331932e+00
1.232464929859719449e+00 2.295795873834134859e+00
1.242484969939879669e+00 2.286430896825085046e+00
1.252505010020040110e+00 2.277253392713480817e+00
1.262525050100200330e+00 2.268272099873282599e+00
1.272545090180360772e+00 2.259493174697130513e+00
1.282565130260520991e+00 2.250911688183681036e+00
1.292585170340681211e+00 2.242519356779745010e+00
1.302605210420841653e+00 2.234308196393056001e+00
1.312625250501001872e+00 2.226270518323712366e+00
1.322645290581162314e+00 2.218398923086518870e+00
1.332665330661322534e+00 2.210686324159202965e+00
1.342685370741482975e+00 2.203128866279960629e+00
1.352705410821643195e+00 2.195728180023760689e+00
1.362725450901803637e+00 2.188486289938364582e+00
1.372745490981963856e+00 2.181405016592897539e+00
1.382765531062124298e+00 2.174485980989792289e+00
1.392785571142284518e+00 2.167730609130980923e+00
1.402805611222444737e+00 2.161140136730337780e+00
1.412825651302605179e+00 2.154715614065289664e+00
1.422845691382765398e+00 2.148457910959990169e+00
1.432865731462925840e+00 2.142367721892805221e+00
1.442885771543086060e+00 2.136445571221004869e+00
1.452905811623246501e+00 2.130691818515189961e+00
1.462925851703406721e+00 2.125106663996803036e+00
1.472945891783567163e+00 2.119689735849097367e+00
1.482965931863727382e+00 2.114438868589919807e+00
1.492985971943887824e+00 2.109351453506463692e+00
1.503006012024048044e+00 2.104424880055673963e+00
1.513026052104208263e+00 2.099656537206874063e+00
1.523046092184368705e+00 2.095043814782643565e+00
1.533066132264528925e+00 2.090584104796170184e+00
1.543086172344689366e+00 2.086274802784014337e+00
1.553106212424849586e+00 2.082113309132572976e+00
1.563126252505010028e+00 2.078097030397431766e+00
1.573146292585170247e+00 2.074223380613807066e+00
1.583166332665330689e+00 2.070489782597275674e+00
1.593186372745490909e+00 2.066893669233657249e+00
1.603206412825651128e+00 2.063431999604973921e+00
1.613226452905811570e+00 2.060097213227572333e+00
1.623246492985971789e+00 2.056879554002306598e+00
1.633266533066132231e+00 2.053769666549043027e+00
1.643286573146292451e+00 2.050758611018817845e+00
1.653306613226452892e+00 2.047837851043559532e+00
1.663326653306613112e+00 2.044999243196735428e+00
1.673346693386773554e+00 2.042236500002602373e+00
1.683366733466933773e+00 2.039548113850363276e+00
1.693386773547094215e+00 2.036933453353091394e+00
1.703406813627254435e+00 2.034391861207989205e+00
1.713426853707414654e+00 2.031922655236984898e+00
1.723446893787575096e+00 2.029525129428932484e+00
1.733466933867735316e+00 2.027198564428259520e+00
1.743486973947895757e+00 2.024942492755882117e+00
1.753507014028055977e+00 2.022756717552380401e+00
1.763527054108216419e+00 2.020641004788819473e+00
1.773547094188376638e+00 2.018595067879742189e+00
1.783567134268537080e+00 2.016618569796838401e+00
1.793587174348697300e+00 2.014711125185109530e+00
1.803607214428857741e+00 2.012872302479737474e+00
1.813627254509017961e+00 2.011101626021955635e+00
1.823647294589178181e+00 2.009398578172438832e+00
1.833667334669338622e+00 2.007762601420465032e+00
1.843687374749498842e+00 2.006193100487527747e+00
1.853707414829659283e+00 2.004689444423739086e+00
1.863727454909819503e+00 2.003250967490386003e+00
1.873747494989979945e+00 2.001876627741427050e+00
1.883767535070140164e+00 2.000564565542029882e+00
1.893787575150300606e+00 1.999312845371158609e+00
1.903807615230460826e+00 1.998119578139437413e+00
1.913827655310621267e+00 1.996982920361066061e+00
1.923847695390781487e+00 1.995901073334278131e+00
1.933867735470941707e+00 1.994872282330055091e+00
1.943887775551102148e+00 1.993894835789360220e+00
1.953907815631262368e+00 1.992967064528768040e+00
1.963927855711422810e+00 1.992087340954477703e+00
1.973947895791583029e+00 1.991254078284981244e+00
1.983967935871743471e+00 1.990465729782067816e+00
1.993987975951903691e+00 1.989720787990373996e+00
2.004008016032063910e+00 1.989017839639456664e+00
2.014028056112224352e+00 1.988355799094406962e+00
2.024048096192384794e+00 1.987733693526710921e+00
2.034068136272544791e+00 1.987150561320304432e+00
2.044088176352705233e+00 1.986605452305771902e+00
2.054108216432865675e+00 1.986097428052472358e+00
2.064128256513026116e+00 1.985625562150492796e+00
2.074148296593186114e+00 1.985188940482601971e+00
2.084168336673346555e+00 1.984786661486070081e+00
2.094188376753506997e+00 1.984417836404582136e+00
2.104208416833667439e+00 1.984081589530284351e+00
2.114228456913827436e+00 1.983777058436092977e+00
2.124248496993987878e+00 1.983503394198109948e+00
2.134268537074148320e+00 1.983259637434053868e+00
2.144288577154308317e+00 1.983043224220068179e+00
2.154308617234468759e+00 1.982850566466167974e+00
2.164328657314629201e+00 1.982678225679588291e+00
2.174348697394789642e+00 1.982522931707349612e+00
2.184368737474949640e+00 1.982381576717749727e+00
2.194388777555110082e+00 1.982251209668129732e+00
2.204408817635270523e+00 1.982129031247514384e+00
2.214428857715430965e+00 1.982012389281226916e+00
2.224448897795590963e+00 1.981898774587016243e+00
2.234468937875751404e+00 1.981785817270629968e+00
2.244488977955911846e+00 1.981671283450711751e+00
2.254509018036071843e+00 1.981553072401936344e+00
2.264529058116232285e+00 1.981429304809148251e+00
2.274549098196392727e+00 1.981302752831196834e+00
2.284569138276553169e+00 1.981182517897704942e+00
2.294589178356713166e+00 1.981077667928593300e+00
2.304609218436873608e+00 1.980996723416494465e+00
2.314629258517034049e+00 1.980947682167720103e+00
2.324649298597194491e+00 1.980938049633807596e+00
2.334669338677354489e+00 1.980973811894851666e+00
2.344689378757514930e+00 1.981050542722697427e+00
2.354709418837675372e+00 1.981158514823359473e+00
2.364729458917835370e+00 1.981288448438557337e+00
2.374749498997995811e+00 1.981431541306658994e+00
2.384769539078156253e+00 1.981579442648692568e+00
2.394789579158316695e+00 1.981724234230076487e+00
2.404809619238476692e+00 1.981860339666638104e+00
2.414829659318637134e+00 1.981988386821774473e+00
2.424849699398797576e+00 1.982110107531845467e+00
2.434869739478958017e+00 1.982227148668486150e+00
2.444889779559118015e+00 1.982341073898353123e+00
2.454909819639278457e+00 1.982453365610458818e+00
2.464929859719438898e+00 1.982565427005019032e+00
2.474949899799598896e+00 1.982678584337370653e+00
2.484969939879759337e+00 1.982794089311477936e+00
2.494989979959919779e+00 1.982913121617440044e+00
2.505010020040080221e+00 1.983036791607853289e+00
2.515030060120240218e+00 1.983166143108108903e+00
2.525050100200400660e+00 1.983302156356442136e+00
2.535070140280561102e+00 1.983445634264460633e+00
2.545090180360721543e+00 1.983596508053778962e+00
2.555110220440881541e+00 1.983754353598089715e+00
2.565130260521041983e+00 1.983918760602337628e+00
2.575150300601202424e+00 1.984089333670087552e+00
2.585170340681362422e+00 1.984265691896070605e+00
2.595190380761522864e+00 1.984447468466927988e+00
2.605210420841683305e+00 1.984634310269284496e+00
2.615230460921843747e+00 1.984825877505636660e+00
2.625250501002003745e+00 1.985021843317805068e+00
2.635270541082164186e+00 1.985221893417895345e+00
2.645290581162324628e+00 1.985425725726515989e+00
2.655310621242485070e+00 1.985633050018752899e+00
2.665330661322645067e+00 1.985843571910428595e+00
2.675350701402805509e+00 1.986056709934810094e+00
2.685370741482965951e+00 1.986271641435108037e+00
2.695390781563125948e+00 1.986487571901414784e+00
2.705410821643286390e+00 1.986703743245227027e+00
2.715430861723446831e+00 1.986919432207032488e+00
2.725450901803607273e+00 1.987133948879626022e+00
2.735470941883767271e+00 1.987346635344748202e+00
2.745490981963927712e+00 1.987556864421374581e+00
2.755511022044088154e+00 1.987764038523004650e+00
2.765531062124248596e+00 1.987967588622842730e+00
2.775551102204408593e+00 1.988166973324475340e+00
2.785571142284569035e+00 1.988361678036741020e+00
2.795591182364729477e+00 1.988551217624441536e+00
2.805611222444889474e+00 1.988735480198124517e+00
2.815631262525049916e+00 1.988915002446865143e+00
2.825651302605210358e+00 1.989090368074312387e+00
2.835671342685370799e+00 1.989262136067711406e+00
2.845691382765530797e+00 1.989430841365397606e+00
2.855711422845691239e+00 1.989596995560154236e+00
2.865731462925851680e+00 1.989761087637333281e+00
2.875751503006012122e+00 1.989923584747937069e+00
2.885771543086172120e+00 1.990084933015578095e+00
2.895791583166332561e+00 1.990245558377143009e+00
2.905811623246493003e+00 1.990405867457013978e+00
2.915831663326653000e+00 1.990566248474564981e+00
2.925851703406813442e+00 1.990727072184916180e+00
2.935871743486973884e+00 1.990888783413750085e+00
2.945891783567134325e+00 1.991052174109504413e+00
2.955911823647294323e+00 1.991218094964694929e+00
2.965931863727454765e+00 1.991387361267521028e+00
2.975951903807615206e+00 1.991560755982730635e+00
2.985971943887775648e+00 1.991739033078023580e+00
2.995991983967935646e+00 1.991922891904155390e+00
3.006012024048096087e+00 1.992111526708713498e+00
3.016032064128256529e+00 1.992302020152114883e+00
3.026052104208416527e+00 1.992491395441097213e+00
3.036072144288576968e+00 1.992676783122345086e+00
3.046092184368737410e+00 1.992855416151398273e+00
3.056112224448897852e+00 1.993024628162812339e+00
3.066132264529057849e+00 1.993182109662381629e+00
3.076152304609218291e+00 1.993328083929678307e+00
3.086172344689378733e+00 1.993464128890702236e+00
3.096192384769539174e+00 1.993591786033754421e+00
3.106212424849699172e+00 1.993712543467119236e+00
3.116232464929859614e+00 1.993827834919893460e+00
3.126252505010020055e+00 1.993939039388750833e+00
3.136272545090180053e+00 1.994047481427036139e+00
3.146292585170340494e+00 1.994154432073196759e+00
3.156312625250500936e+00 1.994261110416382321e+00
3.166332665330661378e+00 1.994368685799378982e+00
3.176352705410821375e+00 1.994478280658756875e+00
3.186372745490981817e+00 1.994590974003975337e+00
3.196392785571142259e+00 1.994707778298476564e+00
3.206412825651302256e+00 1.994828861264228648e+00
3.216432865731462698e+00 1.994953464724590564e+00
3.226452905811623140e+00 1.995080811335083748e+00
3.236472945891783581e+00 1.995210154273612924e+00
3.246492985971943579e+00 1.995340774616416457e+00
3.256513026052104021e+00 1.995471978981316452e+00
3.266533066132264462e+00 1.995603097436044804e+00
3.276553106212424904e+00 1.995733481669712539e+00
3.286573146292584902e+00 1.995862503426647505e+00
3.296593186372745343e+00 1.995989553201148015e+00
3.306613226452905785e+00 1.996114039193029877e+00
3.316633266533065783e+00 1.996235386523504074e+00
3.326653306613226224e+00 1.996353037306319855e+00
3.336673346693386666e+00 1.996466631159706573e+00
3.346693386773547108e+00 1.996576252166635701e+00
3.356713426853707105e+00 1.996682046559677515e+00
3.366733466933867547e+00 1.996784157501181989e+00
3.376753507014027988e+00 1.996882725118795721e+00
3.386773547094188430e+00 1.996977886540889369e+00
3.396793587174348428e+00 1.997069775932395430e+00
3.406813627254508869e+00 1.997158524530535439e+00
3.416833667334669311e+00 1.997244260680952621e+00
3.426853707414829309e+00 1.997327109873991979e+00
3.436873747494989750e+00 1.997407194781082529e+00
3.446893787575150192e+00 1.997484635291809862e+00
3.456913827655310634e+00 1.997559548550879915e+00
3.466933867735470631e+00 1.997632048995951592e+00
3.476953907815631073e+00 1.997702248395525793e+00
3.486973947895791515e+00 1.997770255887802549e+00
3.496993987975951956e+00 1.997836178019716025e+00
3.507014028056111954e+00 1.997900118786944512e+00
3.517034068136272396e+00 1.997962179674706462e+00
3.527054108216432837e+00 1.998022459699124953e+00
3.537074148296592835e+00 1.998081055449736132e+00
3.547094188376753277e+00 1.998138061132996857e+00
3.557114228456913718e+00 1.998193568616880356e+00
3.567134268537074160e+00 1.998247667476536371e+00
3.577154308617234157e+00 1.998300445041549800e+00
3.587174348697394599e+00 1.998351986444225625e+00
3.597194388777555041e+00 1.998402374669782766e+00
3.607214428857715482e+00 1.998451690607790487e+00
3.617234468937875480e+00 1.998500013105534601e+00
3.627254509018035922e+00 1.998547419023264160e+00
3.637274549098196363e+00 1.998593983291144571e+00
3.647294589178356361e+00 1.998639778968537062e+00
3.657314629258516803e+00 1.998684877305308305e+00
3.667334669338677244e+00 1.998729336366435128e+00
3.677354709418837686e+00 1.998773166102263632e+00
3.687374749498997684e+00 1.998816364518777311e+00
3.697394789579158125e+00 1.998858929948820640e+00
3.707414829659318567e+00 1.998900861033152232e+00
3.717434869739479009e+00 1.998942156702066431e+00
3.727454909819639006e+00 1.998982816157794717e+00
3.737474949899799448e+00 1.999022838857469786e+00
3.747494989979959890e+00 1.999062224496903184e+00
3.757515030060119887e+00 1.999100972994725778e+00
3.767535070140280329e+00 1.999139084477361106e+00
3.777555110220440771e+00 1.999176559264582043e+00
3.787575150300601212e+00 1.999213397855461594e+00
3.797595190380761210e+00 1.999249600915173675e+00
3.807615230460921651e+00 1.999285169262109862e+00
3.817635270541082093e+00 1.999320103855670050e+00
3.827655310621242535e+00 1.999354405784566469e+00
3.837675350701402532e+00 1.999388076255569358e+00
3.847695390781562974e+00 1.999421116582951630e+00
3.857715430861723416e+00 1.999453528178187778e+00
3.867735470941883413e+00 1.999485312540297821e+00
3.877755511022043855e+00 1.999516471246674199e+00
3.887775551102204297e+00 1.999547005944284139e+00
3.897795591182364738e+00 1.999576918341489984e+00
3.907815631262524736e+00 1.999606210200050471e+00
3.917835671342685178e+00 1.999634883327885859e+00
3.927855711422845619e+00 1.999662939572088405e+00
3.937875751503006061e+00 1.999690380812336965e+00
3.947895791583166059e+00 1.999717208954905789e+00
3.957915831663326500e+00 1.999743425927014373e+00
3.967935871743486942e+00 1.999769033671385365e+00
