# xed.py --xrd --calculation-type static --signal-geoms h2.xyz --qmin 0.0 --qmax 5.0 --npoints 500 --export xrd_elastic.out
0.000000000000000000e+00 4.000000000000000000e+00
1.002004008016032024e-02 4.000302644385431705e+00
2.004008016032064049e-02 3.999457225804919247e+00
3.006012024048096073e-02 3.997483316499329309e+00
4.008016032064128098e-02 3.994401058518777248e+00
5.010020040080159776e-02 3.990231133375297556e+00
6.012024048096192147e-02 3.984994731942278712e+00
7.014028056112224518e-02 3.978713524619285735e+00
8.016032064128256196e-02 3.971409631780492333e+00
9.018036072144287874e-02 3.963105594524737540e+00
1.002004008016031955e-01 3.953824345744720858e+00
1.102204408817635262e-01 3.943589181532543009e+00
1.202404809619238429e-01 3.932423732938413075e+00
1.302605210420841597e-01 3.920351938098880940e+00
1.402805611222444904e-01 3.907401151295414543e+00
1.503006012024047933e-01 3.893628402448364056e+00
1.603206412825651239e-01 3.879106783439837614e+00
1.703406813627254546e-01 3.863909289022789295e+00
1.803607214428857575e-01 3.848108573440376379e+00
1.903807615230460881e-01 3.831776879885740339e+00
2.004008016032063910e-01 3.814985952440240524e+00
2.104208416833667217e-01 3.797765436219306068e+00
2.204408817635270523e-01 3.780018138406828765e+00
2.304609218436873552e-01 3.761624060197127140e+00
2.404809619238476859e-01 3.742464827225404633e+00
2.505010020040079888e-01 3.722423830019096602e+00
2.605210420841683194e-01 3.701386383941283498e+00
2.705410821643286501e-01 3.679243653030606076e+00
2.805611222444889807e-01 3.655996771425379155e+00
2.905811623246493114e-01 3.631768735030675543e+00
3.006012024048095865e-01 3.606687892476527324e+00
3.106212424849699172e-01 3.580881218046227943e+00
3.206412825651302478e-01 3.554474152465451731e+00
3.306613226452905785e-01 3.527590463590187575e+00
3.406813627254509091e-01 3.500339229544393138e+00
3.507014028056111843e-01 3.472738080893875701e+00
3.607214428857715149e-01 3.444766411037881060e+00
3.707414829659318456e-01 3.416404096363292897e+00
3.807615230460921762e-01 3.387631661552848339e+00
3.907815631262525069e-01 3.358430300941812163e+00
4.008016032064127820e-01 3.328781928358265141e+00
4.108216432865731127e-01 3.298676762353253356e+00
4.208416833667334433e-01 3.268123379948241869e+00
4.308617234468937740e-01 3.237133106381517855e+00
4.408817635270541047e-01 3.205717411969103647e+00
4.509018036072144353e-01 3.173887907590567714e+00
4.609218436873747105e-01 3.141656340131513403e+00
4.709418837675350411e-01 3.109035230079300050e+00
4.809619238476953718e-01 3.076049237042397522e+00
4.909819639278557024e-01 3.042733476674858828e+00
5.010020040080159776e-01 3.009122954423227192e+00
5.110220440881763082e-01 2.975252161154976704e+00
5.210420841683366389e-01 2.941155049595929771e+00
5.310621242484969695e-01 2.906865012153918126e+00
5.410821643286573002e-01 2.872417173577093585e+00
5.511022044088176308e-01 2.837858132213348483e+00
5.611222444889779615e-01 2.803237427325863340e+00
5.711422845691382921e-01 2.768603439092754748e+00
5.811623246492986228e-01 2.734003364216775367e+00
5.911823647294588424e-01 2.699483197747547081e+00
6.012024048096191731e-01 2.665087409617870051e+00
6.112224448897795037e-01 2.630828880401442582e+00
6.212424849699398344e-01 2.596664925002624358e+00
6.312625250501001650e-01 2.562548351478404207e+00
6.412825651302604957e-01 2.528433521118444105e+00
6.513026052104208263e-01 2.494276367696063090e+00
6.613226452905811570e-01 2.460034420949441802e+00
6.713426853707414876e-01 2.425670623788111158e+00
6.813627254509018183e-01 2.391198641900516897e+00
6.913827655310621489e-01 2.356666327974785702e+00
7.014028056112223686e-01 2.322120985693076456e+00
7.114228456913826992e-01 2.287608615292815450e+00
7.214428857715430299e-01 2.253173892219747732e+00
7.314629258517033605e-01 2.218860149717563957e+00
7.414829659318636912e-01 2.184706050477050354e+00
7.515030060120240218e-01 2.150735795369683512e+00
7.615230460921843525e-01 2.116969520928754456e+00
7.715430861723446831e-01 2.083426710132314952e+00
7.815631262525050138e-01 2.050126190782907809e+00
7.915831663326653445e-01 2.017086134821411303e+00
8.016032064128255641e-01 1.984324030712169007e+00
8.116232464929858947e-01 1.951855350558623581e+00
8.216432865731462254e-01 1.919693026276999559e+00
8.316633266533065560e-01 1.887849319048522378e+00
8.416833667334668867e-01 1.856335976916806185e+00
8.517034068136272174e-01 1.825164238120396742e+00
8.617234468937875480e-01 1.794344834972332769e+00
8.717434869739478787e-01 1.763883447934289972e+00
8.817635270541082093e-01 1.733742783147704802e+00
8.917835671342685400e-01 1.703863665824361107e+00
9.018036072144288706e-01 1.674189018103113824e+00
9.118236472945890903e-01 1.644664107221899929e+00
9.218436873747494209e-01 1.615236551972029755e+00
9.318637274549097516e-01 1.585856358340057781e+00
9.418837675350700822e-01 1.556513285436998295e+00
9.519038076152304129e-01 1.527311458144526846e+00
9.619238476953907435e-01 1.498372266297151700e+00
9.719438877755510742e-01 1.469811886600883133e+00
9.819639278557114048e-01 1.441741319818911293e+00
9.919839679358717355e-01 1.414266473990064554e+00
1.002004008016031955e+00 1.387484711069943977e+00
1.012024048096192397e+00 1.361385467956834461e+00
1.022044088176352616e+00 1.335842453795459184e+00
1.032064128256513058e+00 1.310728372305335787e+00
1.042084168336673278e+00 1.285921248106261405e+00
1.052104208416833719e+00 1.261304346619423811e+00
1.062124248496993939e+00 1.236766145741458267e+00
1.072144288577154159e+00 1.212219826792592769e+00
1.082164328657314600e+00 1.187718307449836308e+00
1.092184368737474820e+00 1.163369823910497480e+00
1.102204408817635262e+00 1.139277935496726624e+00
1.112224448897795481e+00 1.115541300297319793e+00
1.122244488977955923e+00 1.092253724373486223e+00
1.132264529058116143e+00 1.069504119892255911e+00
1.142284569138276584e+00 1.047339137754691452e+00
1.152304609218436804e+00 1.025714745570438069e+00
1.162324649298597246e+00 1.004576063542143904e+00
1.172344689378757465e+00 9.838705129938438709e-01
1.182364729458917685e+00 9.635477520592505840e-01
1.192384769539078126e+00 9.435596214014025929e-01
1.202404809619238346e+00 9.238615493774365861e-01
1.212424849699398788e+00 9.044381987418028679e-01
1.222444889779559007e+00 8.852989296140316711e-01
1.232464929859719449e+00 8.664533654001012053e-01
1.242484969939879669e+00 8.479105205807004886e-01
1.252505010020040110e+00 8.296788115594790902e-01
1.262525050100200330e+00 8.117660683589874582e-01
1.272545090180360772e+00 7.941775170593416977e-01
1.282565130260520991e+00 7.769072778389183309e-01
1.292585170340681211e+00 7.599460972155815952e-01
1.302605210420841653e+00 7.432850034056703858e-01
1.312625250501001872e+00 7.269153035508354455e-01
1.322645290581162314e+00 7.108285787861703398e-01
1.332665330661322534e+00 6.950167091865935287e-01
1.342685370741482975e+00 6.794747932159226345e-01
1.352705410821643195e+00 6.642034034102795026e-01
1.362725450901803637e+00 6.492034955775201066e-01
1.372745490981963856e+00 6.344758118672537694e-01
1.382765531062124298e+00 6.200208861637485080e-01
1.392785571142284518e+00 6.058390495935086495e-01
1.402805611222444737e+00 5.919304361412670579e-01
1.412825651302605179e+00 5.782949883681780534e-01
1.422845691382765398e+00 5.649324632260277479e-01
1.432865731462925840e+00 5.518424379613060538e-01
1.442885771543086060e+00 5.390243161030534580e-01
1.452905811623246501e+00 5.264773335284193001e-01
1.462925851703406721e+00 5.142005645999451202e-01
1.472945891783567163e+00 5.021925101463189378e-01
1.482965931863727382e+00 4.904498764757689866e-01
1.492985971943887824e+00 4.789689264232917520e-01
1.503006012024048044e+00 4.677459213362866741e-01
1.513026052104208263e+00 4.567771229762387364e-01
1.523046092184368705e+00 4.460587953930864602e-01
1.533066132264528925e+00 4.355872067717051488e-01
1.543086172344689366e+00 4.253586312499304523e-01
1.553106212424849586e+00 4.153693507075987279e-01
1.563126252505010028e+00 4.056156565260814473e-01
1.573146292585170247e+00 3.960938513178479670e-01
1.583166332665330689e+00 3.868002506255946438e-01
1.593186372745490909e+00 3.777311845905366727e-01
1.603206412825651128e+00 3.688825144377863019e-01
1.613226452905811570e+00 3.602455870552673800e-01
1.623246492985971789e+00 3.518095592667813132e-01
1.633266533066132231e+00 3.435639944722033712e-01
1.643286573146292451e+00 3.354988777487573071e-01
1.653306613226452892e+00 3.276046040738459508e-01
1.663326653306613112e+00 3.198719680430953671e-01
1.673346693386773554e+00 3.122936271225565941e-01
1.683366733466933773e+00 3.048670257910299775e-01
1.693386773547094215e+00 2.975904921136605097e-01
1.703406813627254435e+00 2.904623358032644709e-01
1.713426853707414654e+00 2.834808494494479580e-01
1.723446893787575096e+00 2.766443097367372594e-01
1.733466933867735316e+00 2.699509880974043097e-01
1.743486973947895757e+00 2.633994160850767763e-01
1.753507014028055977e+00 2.569884042596404794e-01
1.763527054108216419e+00 2.507167345290685079e-01
1.773547094188376638e+00 2.445831448833903909e-01
1.783567134268537080e+00 2.385863316194916650e-01
1.793587174348697300e+00 2.327249515589572826e-01
1.803607214428857741e+00 2.269976242575933167e-01
1.813627254509017961e+00 2.214029342053155380e-01
1.823647294589178181e+00 2.159394330151236940e-01
1.833667334669338622e+00 2.106056415999379705e-01
1.843687374749498842e+00 2.054000523361073083e-01
1.853707414829659283e+00 2.003211312124534849e-01
1.863727454909819503e+00 1.953673187582128101e-01
1.873747494989979945e+00 1.905366886633019785e-01
1.883767535070140164e+00 1.858265063291151264e-01
1.893787575150300606e+00 1.812339706970577391e-01
1.903807615230460826e+00 1.767563365864350811e-01
1.913827655310621267e+00 1.723909138807776797e-01
1.923847695390781487e+00 1.681350667170953550e-01
1.933867735470941707e+00 1.639862126783141749e-01
1.943887775551102148e+00 1.599418219891474424e-01
1.953907815631262368e+00 1.559994167156418532e-01
1.963927855711422810e+00 1.521565699686320272e-01
1.973947895791583029e+00 1.484109051113322864e-01
1.983967935871743471e+00 1.447600949712827545e-01
1.993987975951903691e+00 1.412018610568650523e-01
2.004008016032063910e+00 1.377340284325296038e-01
2.014028056112224352e+00 1.343547591390848450e-01
2.024048096192384794e+00 1.310623373307070738e-01
2.034068136272544791e+00 1.278550676439899336e-01
2.044088176352705233e+00 1.247312753921261397e-01
2.054108216432865675e+00 1.216893068140023487e-01
2.064128256513026116e+00 1.187275293104225332e-01
2.074148296593186114e+00 1.158443316676453783e-01
2.084168336673346555e+00 1.130381242684279086e-01
2.094188376753506997e+00 1.103073392907770595e-01
2.104208416833667439e+00 1.076504308946150679e-01
2.114228456913827436e+00 1.050658753965786341e-01
2.124248496993987878e+00 1.025521714331739803e-01
2.134268537074148320e+00 1.001077159377747744e-01
2.144288577154308317e+00 9.772930999464647661e-02
2.154308617234468759e+00 9.541273914972034365e-02
2.164328657314629201e+00 9.315394710784589971e-02
2.174348697394789642e+00 9.094905440791280216e-02
2.184368737474949640e+00 8.879435233541919936e-02
2.194388777555110082e+00 8.668629732040582236e-02
2.204408817635270523e+00 8.462150580865904215e-02
2.214428857715430965e+00 8.259674959440395370e-02
2.224448897795590963e+00 8.060895160304609730e-02
2.234468937875751404e+00 7.865518211286358363e-02
2.244488977955911846e+00 7.673265540491278069e-02
2.254509018036071843e+00 7.483872683077542887e-02
2.264529058116232285e+00 7.297098099029888929e-02
2.274549098196392727e+00 7.113166171869332588e-02
2.284569138276553169e+00 6.932934980596539010e-02
2.294589178356713166e+00 6.757260013862265158e-02
2.304609218436873608e+00 6.586942770388543034e-02
2.314629258517034049e+00 6.422733225206934959e-02
2.324649298597194491e+00 6.265332854945904195e-02
2.334669338677354489e+00 6.115291928231614271e-02
2.344689378757514930e+00 5.972120204104467561e-02
2.354709418837675372e+00 5.834798048311530538e-02
2.364729458917835370e+00 5.702351285514764556e-02
2.374749498997995811e+00 5.573854187432957658e-02
2.384769539078156253e+00 5.448426863489148203e-02
2.394789579158316695e+00 5.325233359041129516e-02
2.404809619238476692e+00 5.203672578030989204e-02
2.414829659318637134e+00 5.083764514788445543e-02
2.424849699398797576e+00 4.965640218637834558e-02
2.434869739478958017e+00 4.849422892247885752e-02
2.444889779559118015e+00 4.735228059722200455e-02
2.454909819639278457e+00 4.623163751489752643e-02
2.464929859719438898e+00 4.513330705357974926e-02
2.474949899799598896e+00 4.405822583121321578e-02
2.484969939879759337e+00 4.300726202149837696e-02
2.494989979959919779e+00 4.198121781413582249e-02
2.505010020040080221e+00 4.098083201430640504e-02
2.515030060120240218e+00 4.000678277658735460e-02
2.525050100200400660e+00 3.905969046882901835e-02
2.535070140280561102e+00 3.814000385721206393e-02
2.545090180360721543e+00 3.724730566766151080e-02
2.555110220440881541e+00 3.638082885319888354e-02
2.565130260521041983e+00 3.553982569907618988e-02
2.575150300601202424e+00 3.472356881630607461e-02
2.585170340681362422e+00 3.393135066127654642e-02
2.595190380761522864e+00 3.316248306366492010e-02
2.605210420841683305e+00 3.241629676260335269e-02
2.615230460921843747e+00 3.169214095104479906e-02
2.625250501002003745e+00 3.098938282827525328e-02
2.635270541082164186e+00 3.030740716051458922e-02
2.645290581162324628e+00 2.964561584954638826e-02
2.655310621242485070e+00 2.900342750931298591e-02
2.665330661322645067e+00 2.838026138387864800e-02
2.675350701402805509e+00 2.777525435608099030e-02
2.685370741482965951e+00 2.718730677287069936e-02
2.695390781563125948e+00 2.661535171549923862e-02
2.705410821643286390e+00 2.605836320810495793e-02
2.715430861723446831e+00 2.551535455991454579e-02
2.725450901803607273e+00 2.498537682380116975e-02
2.735470941883767271e+00 2.446751736897318300e-02
2.745490981963927712e+00 2.396089856568529158e-02
2.755511022044088154e+00 2.346467657998382167e-02
2.765531062124248596e+00 2.297804027661736262e-02
2.775551102204408593e+00 2.250021022836483711e-02
2.785571142284569035e+00 2.203043783015454921e-02
2.795591182364729477e+00 2.156800788967688093e-02
2.805611222444889474e+00 2.111258235769547867e-02
2.815631262525049916e+00 2.066447560217972435e-02
2.825651302605210358e+00 2.022405278607297338e-02
2.835671342685370799e+00 1.979165807907405997e-02
2.845691382765530797e+00 1.936761526831480215e-02
2.855711422845691239e+00 1.895222840550052704e-02
2.865731462925851680e+00 1.854578248983671310e-02
2.875751503006012122e+00 1.814854418616975232e-02
2.885771543086172120e+00 1.776076257787549337e-02
2.895791583166332561e+00 1.738266995413293575e-02
2.905811623246493003e+00 1.701448263132415706e-02
2.915831663326653000e+00 1.665640180840393531e-02
2.925851703406813442e+00 1.630861445618394037e-02
2.935871743486973884e+00 1.597138480130174884e-02
2.945891783567134325e+00 1.564532732826328862e-02
2.955911823647294323e+00 1.533111835118472661e-02
2.965931863727454765e+00 1.502940181655502798e-02
2.975951903807615206e+00 1.474079233576951718e-02
2.985971943887775648e+00 1.446587846396933663e-02
2.995991983967935646e+00 1.420519703309413434e-02
3.006012024048096087e+00 1.395778261928707666e-02
3.016032064128256529e+00 1.372056101317703850e-02
3.026052104208416527e+00 1.349040130813631763e-02
3.036072144288576968e+00 1.326428264946863389e-02
3.046092184368737410e+00 1.303928925933646975e-02
3.056112224448897852e+00 1.281260866359155634e-02
3.066132264529057849e+00 1.258178784133725907e-02
3.076152304609218291e+00 1.234690908523271638e-02
3.086172344689378733e+00 1.210941183269043098e-02
3.096192384769539174e+00 1.187070154067917070e-02
3.106212424849699172e+00 1.163213270313383230e-02
3.116232464929859614e+00 1.139500781183648039e-02
3.126252505010020055e+00 1.116057696405969163e-02
3.136272545090180053e+00 1.093003811292096727e-02
3.146292585170340494e+00 1.070453795755896102e-02
3.156312625250500936e+00 1.048517347138736185e-02
3.166332665330661378e+00 1.027299406780998910e-02
3.176352705410821375e+00 1.006900440389034077e-02
3.186372745490981817e+00 9.874167823558885684e-03
3.196392785571142259e+00 9.689383203180296569e-03
3.206412825651302256e+00 9.514706721336545561e-03
3.216432865731462698e+00 9.349270667031558263e-03
3.226452905811623140e+00 9.192190136911623788e-03
3.236472945891783581e+00 9.042612691804997188e-03
3.246492985971943579e+00 8.899715699974962424e-03
3.256513026052104021e+00 8.762703947952879546e-03
3.266533066132264462e+00 8.630807516892404635e-03
3.276553106212424904e+00 8.503279922772300284e-03
3.286573146292584902e+00 8.379396519156402656e-03
3.296593186372745343e+00 8.258453161593352215e-03
3.306613226452905785e+00 8.139765133106394157e-03
3.316633266533065783e+00 8.022666330583868785e-03
3.326653306613226224e+00 7.906509306847619295e-03
3.336673346693386666e+00 7.790845753945101898e-03
3.346693386773547108e+00 7.675673435217043872e-03
3.356713426853707105e+00 7.561053842486443327e-03
3.366733466933867547e+00 7.447046948896585139e-03
3.376753507014027988e+00 7.333711217484247327e-03
3.386773547094188430e+00 7.221103610289863334e-03
3.396793587174348428e+00 7.109279598018478953e-03
3.406813627254508869e+00 6.998293170270843480e-03
3.416833667334669311e+00 6.888196846369529225e-03
3.426853707414829309e+00 6.779041686810233225e-03
3.436873747494989750e+00 6.670877305373633902e-03
3.446893787575150192e+00 6.563751881938396926e-03
3.456913827655310634e+00 6.457712176040692441e-03
3.466933867735470631e+00 6.352803541230522821e-03
3.476953907815631073e+00 6.249069940279821343e-03
3.486973947895791515e+00 6.146553961301946811e-03
3.496993987975951956e+00 6.045296834846233293e-03
3.507014028056111954e+00 5.945338452036058423e-03
3.517034068136272396e+00 5.846717383822485486e-03
3.527054108216432837e+00 5.749470901429847881e-03
3.537074148296592835e+00 5.653634998073199872e-03
3.547094188376753277e+00 5.559244412031364400e-03
3.557114228456913718e+00 5.466332651162725265e-03
3.567134268537074160e+00 5.374932018954190448e-03
3.577154308617234157e+00 5.285073642196976527e-03
3.587174348697394599e+00 5.196787500385805295e-03
3.597194388777555041e+00 5.110102456940995505e-03
3.607214428857715482e+00 5.025046292355440231e-03
3.617234468937875480e+00 4.941645739371105725e-03
3.627254509018035922e+00 4.859926520291898630e-03
3.637274549098196363e+00 4.779913386541915013e-03
3.647294589178356361e+00 4.701630160580019813e-03
3.657314629258516803e+00 4.625099780283505047e-03
3.667334669338677244e+00 4.550332906898544791e-03
3.677354709418837686e+00 4.477292978913764189e-03
3.687374749498997684e+00 4.405932366156763320e-03
3.697394789579158125e+00 4.336204625242614380e-03
3.707414829659318567e+00 4.268064464996644720e-03
3.717434869739479009e+00 4.201467712826384253e-03
3.727454909819639006e+00 4.136371282031813500e-03
3.737474949899799448e+00 4.072733140033015821e-03
3.747494989979959890e+00 4.010512277495083266e-03
3.757515030060119887e+00 3.949668678330563523e-03
3.767535070140280329e+00 3.890163290560342581e-03
3.777555110220440771e+00 3.831957998014499586e-03
3.787575150300601212e+00 3.775015592855074983e-03
3.797595190380761210e+00 3.719299748903455438e-03
3.807615230460921651e+00 3.664774995755419942e-03
3.817635270541082093e+00 3.611406693667667308e-03
3.827655310621242535e+00 3.559161009200023911e-03
3.837675350701402532e+00 3.508004891598156746e-03
3.847695390781562974e+00 3.457906049902165907e-03
3.857715430861723416e+00 3.408832930766917627e-03
3.867735470941883413e+00 3.360754696980592249e-03
3.877755511022043855e+00 3.313641206668319593e-03
3.887775551102204297e+00 3.267462993168468530e-03
3.897795591182364738e+00 3.222191245569471993e-03
3.907815631262524736e+00 3.177797789895752539e-03
3.917835671342685178e+00 3.134255070931673583e-03
3.927855711422845619e+00 3.091536134673037676e-03
3.937875751503006061e+00 3.049614611396034031e-03
3.947895791583166059e+00 3.008464699334103404e-03
3.957915831663326500e+00 2.968061148953572270e-03
3.967935871743486942e+00 2.928379247819428224e-03
