 #  Scattering amplitudes (in cm)      MU=(1-cos(TH))/2
 #  Z =   1,   projectile: electron
 #  Kinetic energy = 3.70000E+06 eV
 #
 # TH (deg)      MU          Re(F)        Im(F)        Re(G)        Im(G)
 #--------------------------------------------------------------------------
  0.000E+00  0.00000E+00  4.36057E-08  1.87001E-10  0.00000E+00  0.00000E+00
  1.000E-04  7.61557E-13  4.36056E-08  1.87001E-10  3.34351E-14  1.43387E-16
  1.250E-04  1.18994E-12  4.36056E-08  1.87001E-10  4.17939E-14  1.79233E-16
  1.500E-04  1.71346E-12  4.36055E-08  1.87001E-10  5.01526E-14  2.15080E-16
  1.750E-04  2.33225E-12  4.36055E-08  1.87001E-10  5.85113E-14  2.50927E-16
  2.000E-04  3.04617E-12  4.36054E-08  1.87001E-10  6.68700E-14  2.86773E-16
  2.250E-04  3.85530E-12  4.36054E-08  1.87001E-10  7.52286E-14  3.22620E-16
  2.500E-04  4.75964E-12  4.36053E-08  1.87001E-10  8.35872E-14  3.58466E-16
  2.750E-04  5.75917E-12  4.36052E-08  1.87001E-10  9.19458E-14  3.94313E-16
  3.000E-04  6.85391E-12  4.36051E-08  1.87001E-10  1.00304E-13  4.30159E-16
  3.250E-04  8.04379E-12  4.36050E-08  1.87001E-10  1.08663E-13  4.66005E-16
  3.500E-04  9.32893E-12  4.36049E-08  1.87001E-10  1.17021E-13  5.01852E-16
  3.750E-04  1.07092E-11  4.36048E-08  1.87000E-10  1.25379E-13  5.37698E-16
  4.000E-04  1.21847E-11  4.36047E-08  1.87000E-10  1.33738E-13  5.73544E-16
  4.250E-04  1.37554E-11  4.36045E-08  1.87000E-10  1.42096E-13  6.09390E-16
  4.500E-04  1.54213E-11  4.36044E-08  1.87000E-10  1.50454E-13  6.45236E-16
  4.750E-04  1.71823E-11  4.36043E-08  1.87000E-10  1.58812E-13  6.81082E-16
  5.000E-04  1.90386E-11  4.36041E-08  1.87000E-10  1.67170E-13  7.16928E-16
  5.250E-04  2.09900E-11  4.36039E-08  1.87000E-10  1.75528E-13  7.52774E-16
  5.500E-04  2.30367E-11  4.36038E-08  1.87000E-10  1.83886E-13  7.88620E-16
  5.750E-04  2.51785E-11  4.36036E-08  1.86999E-10  1.92243E-13  8.24466E-16
  6.000E-04  2.74156E-11  4.36034E-08  1.86999E-10  2.00601E-13  8.60311E-16
  6.250E-04  2.97478E-11  4.36032E-08  1.86999E-10  2.08958E-13  8.96157E-16
  6.500E-04  3.21752E-11  4.36030E-08  1.86999E-10  2.17316E-13  9.32002E-16
  6.750E-04  3.46979E-11  4.36028E-08  1.86999E-10  2.25673E-13  9.67848E-16
  7.000E-04  3.73157E-11  4.36026E-08  1.86999E-10  2.34030E-13  1.00369E-15
  7.250E-04  4.00286E-11  4.36024E-08  1.86998E-10  2.42387E-13  1.03954E-15
  7.500E-04  4.28368E-11  4.36022E-08  1.86998E-10  2.50744E-13  1.07538E-15
  7.750E-04  4.57402E-11  4.36019E-08  1.86998E-10  2.59100E-13  1.11123E-15
  8.000E-04  4.87388E-11  4.36017E-08  1.86998E-10  2.67457E-13  1.14707E-15
  8.250E-04  5.18325E-11  4.36014E-08  1.86998E-10  2.75813E-13  1.18292E-15
  8.500E-04  5.50215E-11  4.36012E-08  1.86997E-10  2.84170E-13  1.21876E-15
  8.750E-04  5.83057E-11  4.36009E-08  1.86997E-10  2.92526E-13  1.25461E-15
  9.000E-04  6.16850E-11  4.36006E-08  1.86997E-10  3.00882E-13  1.29045E-15
  9.250E-04  6.51595E-11  4.36003E-08  1.86997E-10  3.09237E-13  1.32629E-15
  9.500E-04  6.87293E-11  4.36000E-08  1.86996E-10  3.17593E-13  1.36214E-15
  9.750E-04  7.23943E-11  4.35997E-08  1.86996E-10  3.25949E-13  1.39798E-15
  1.000E-03  7.61544E-11  4.35994E-08  1.86996E-10  3.34304E-13  1.43383E-15
  1.250E-03  1.18991E-10  4.35959E-08  1.86993E-10  4.17846E-13  1.79225E-15
  1.500E-03  1.71347E-10  4.35916E-08  1.86989E-10  5.01366E-13  2.15066E-15
  1.750E-03  2.33223E-10  4.35865E-08  1.86985E-10  5.84859E-13  2.50905E-15
  2.000E-03  3.04617E-10  4.35807E-08  1.86980E-10  6.68320E-13  2.86740E-15
  2.250E-03  3.85531E-10  4.35740E-08  1.86974E-10  7.51745E-13  3.22573E-15
  2.500E-03  4.75965E-10  4.35666E-08  1.86968E-10  8.35131E-13  3.58402E-15
  2.750E-03  5.75917E-10  4.35584E-08  1.86961E-10  9.18471E-13  3.94228E-15
  3.000E-03  6.85389E-10  4.35494E-08  1.86953E-10  1.00176E-12  4.30049E-15
  3.250E-03  8.04380E-10  4.35397E-08  1.86945E-10  1.08500E-12  4.65866E-15
  3.500E-03  9.32891E-10  4.35291E-08  1.86935E-10  1.16818E-12  5.01677E-15
  3.750E-03  1.07092E-09  4.35178E-08  1.86926E-10  1.25129E-12  5.37483E-15
  4.000E-03  1.21847E-09  4.35057E-08  1.86915E-10  1.33434E-12  5.73283E-15
  4.250E-03  1.37554E-09  4.34929E-08  1.86904E-10  1.41732E-12  6.09078E-15
  4.500E-03  1.54213E-09  4.34793E-08  1.86893E-10  1.50022E-12  6.44865E-15
  4.750E-03  1.71823E-09  4.34649E-08  1.86880E-10  1.58304E-12  6.80646E-15
  5.000E-03  1.90386E-09  4.34497E-08  1.86867E-10  1.66578E-12  7.16419E-15
  5.250E-03  2.09900E-09  4.34338E-08  1.86853E-10  1.74843E-12  7.52185E-15
  5.500E-03  2.30367E-09  4.34171E-08  1.86839E-10  1.83098E-12  7.87943E-15
  5.750E-03  2.51785E-09  4.33996E-08  1.86824E-10  1.91344E-12  8.23692E-15
  6.000E-03  2.74156E-09  4.33814E-08  1.86808E-10  1.99580E-12  8.59432E-15
  6.250E-03  2.97478E-09  4.33624E-08  1.86792E-10  2.07804E-12  8.95163E-15
  6.500E-03  3.21752E-09  4.33427E-08  1.86775E-10  2.16018E-12  9.30885E-15
  6.750E-03  3.46978E-09  4.33222E-08  1.86757E-10  2.24220E-12  9.66596E-15
  7.000E-03  3.73156E-09  4.33009E-08  1.86739E-10  2.32411E-12  1.00230E-14
  7.250E-03  4.00286E-09  4.32789E-08  1.86720E-10  2.40589E-12  1.03799E-14
  7.500E-03  4.28368E-09  4.32562E-08  1.86700E-10  2.48754E-12  1.07367E-14
  7.750E-03  4.57402E-09  4.32327E-08  1.86679E-10  2.56906E-12  1.10933E-14
  8.000E-03  4.87388E-09  4.32084E-08  1.86658E-10  2.65045E-12  1.14499E-14
  8.250E-03  5.18326E-09  4.31834E-08  1.86637E-10  2.73169E-12  1.18063E-14
  8.500E-03  5.50215E-09  4.31577E-08  1.86614E-10  2.81280E-12  1.21626E-14
  8.750E-03  5.83057E-09  4.31312E-08  1.86591E-10  2.89375E-12  1.25188E-14
  9.000E-03  6.16850E-09  4.31039E-08  1.86567E-10  2.97455E-12  1.28749E-14
  9.250E-03  6.51596E-09  4.30760E-08  1.86543E-10  3.05519E-12  1.32308E-14
  9.500E-03  6.87293E-09  4.30473E-08  1.86518E-10  3.13568E-12  1.35865E-14
  9.750E-03  7.23942E-09  4.30179E-08  1.86492E-10  3.21599E-12  1.39422E-14
  1.000E-02  7.61544E-09  4.29877E-08  1.86466E-10  3.29615E-12  1.42976E-14
  1.250E-02  1.18991E-08  4.26470E-08  1.86166E-10  4.08752E-12  1.78433E-14
  1.500E-02  1.71347E-08  4.22369E-08  1.85801E-10  4.85787E-12  2.13700E-14
  1.750E-02  2.33223E-08  4.17613E-08  1.85372E-10  5.60370E-12  2.48741E-14
  2.000E-02  3.04617E-08  4.12242E-08  1.84879E-10  6.32188E-12  2.83520E-14
  2.250E-02  3.85531E-08  4.06302E-08  1.84324E-10  7.00964E-12  3.18002E-14
  2.500E-02  4.75965E-08  3.99842E-08  1.83708E-10  7.66466E-12  3.52154E-14
  2.750E-02  5.75917E-08  3.92913E-08  1.83032E-10  8.28502E-12  3.85943E-14
  3.000E-02  6.85389E-08  3.85566E-08  1.82297E-10  8.86920E-12  4.19339E-14
  3.250E-02  8.04380E-08  3.77855E-08  1.81505E-10  9.41614E-12  4.52311E-14
  3.500E-02  9.32891E-08  3.69832E-08  1.80658E-10  9.92515E-12  4.84831E-14
  3.750E-02  1.07092E-07  3.61549E-08  1.79758E-10  1.03959E-11  5.16872E-14
  4.000E-02  1.21847E-07  3.53057E-08  1.78805E-10  1.08285E-11  5.48409E-14
  4.250E-02  1.37554E-07  3.44403E-08  1.77803E-10  1.12233E-11  5.79419E-14
  4.500E-02  1.54213E-07  3.35633E-08  1.76753E-10  1.15809E-11  6.09879E-14
  4.750E-02  1.71823E-07  3.26792E-08  1.75657E-10  1.19022E-11  6.39768E-14
  5.000E-02  1.90386E-07  3.17918E-08  1.74517E-10  1.21885E-11  6.69070E-14
  5.250E-02  2.09900E-07  3.09048E-08  1.73335E-10  1.24408E-11  6.97765E-14
  5.500E-02  2.30367E-07  3.00216E-08  1.72113E-10  1.26608E-11  7.25840E-14
  5.750E-02  2.51785E-07  2.91452E-08  1.70854E-10  1.28499E-11  7.53281E-14
  6.000E-02  2.74156E-07  2.82784E-08  1.69559E-10  1.30098E-11  7.80076E-14
  6.250E-02  2.97478E-07  2.74233E-08  1.68231E-10  1.31421E-11  8.06215E-14
  6.500E-02  3.21752E-07  2.65822E-08  1.66872E-10  1.32486E-11  8.31690E-14
  6.750E-02  3.46978E-07  2.57568E-08  1.65484E-10  1.33309E-11  8.56493E-14
  7.000E-02  3.73156E-07  2.49485E-08  1.64069E-10  1.33908E-11  8.80620E-14
  7.250E-02  4.00286E-07  2.41587E-08  1.62629E-10  1.34300E-11  9.04067E-14
  7.500E-02  4.28368E-07  2.33882E-08  1.61167E-10  1.34500E-11  9.26832E-14
  7.750E-02  4.57402E-07  2.26378E-08  1.59683E-10  1.34524E-11  9.48912E-14
  8.000E-02  4.87388E-07  2.19082E-08  1.58182E-10  1.34388E-11  9.70310E-14
  8.250E-02  5.18325E-07  2.11996E-08  1.56663E-10  1.34106E-11  9.91027E-14
  8.500E-02  5.50215E-07  2.05124E-08  1.55130E-10  1.33691E-11  1.01107E-13
  8.750E-02  5.83057E-07  1.98467E-08  1.53584E-10  1.33156E-11  1.03043E-13
  9.000E-02  6.16850E-07  1.92023E-08  1.52027E-10  1.32514E-11  1.04912E-13
  9.250E-02  6.51596E-07  1.85793E-08  1.50460E-10  1.31776E-11  1.06716E-13
  9.500E-02  6.87293E-07  1.79773E-08  1.48886E-10  1.30952E-11  1.08453E-13
  9.750E-02  7.23942E-07  1.73960E-08  1.47306E-10  1.30052E-11  1.10126E-13
  1.000E-01  7.61543E-07  1.68351E-08  1.45722E-10  1.29086E-11  1.11735E-13
  1.250E-01  1.18991E-06  1.22401E-08  1.29937E-10  1.17316E-11  1.24540E-13
  1.500E-01  1.71347E-06  9.10784E-09  1.14981E-10  1.04754E-11  1.32246E-13
  1.750E-01  2.33223E-06  6.95812E-09  1.01458E-10  9.33674E-12  1.36141E-13
  2.000E-01  3.04617E-06  5.45149E-09  8.95714E-11  8.36007E-12  1.37361E-13
  2.250E-01  3.85531E-06  4.36859E-09  7.92878E-11  7.53684E-12  1.36790E-13
  2.500E-01  4.75964E-06  3.57039E-09  7.04601E-11  6.84418E-12  1.35067E-13
  2.750E-01  5.75916E-06  2.96808E-09  6.29016E-11  6.25855E-12  1.32636E-13
  3.000E-01  6.85388E-06  2.50386E-09  5.64251E-11  5.75967E-12  1.29795E-13
  3.250E-01  8.04378E-06  2.13928E-09  5.08600E-11  5.33110E-12  1.26744E-13
  3.500E-01  9.32888E-06  1.84812E-09  4.60592E-11  4.95980E-12  1.23609E-13
  3.750E-01  1.07092E-05  1.61214E-09  4.18985E-11  4.63554E-12  1.20475E-13
  4.000E-01  1.21846E-05  1.41834E-09  3.82748E-11  4.35019E-12  1.17392E-13
  4.250E-01  1.37553E-05  1.25733E-09  3.51031E-11  4.09736E-12  1.14393E-13
  4.500E-01  1.54212E-05  1.12213E-09  3.23133E-11  3.87191E-12  1.11496E-13
  4.750E-01  1.71822E-05  1.00756E-09  2.98477E-11  3.66970E-12  1.08711E-13
  5.000E-01  1.90385E-05  9.09617E-10  2.76588E-11  3.48736E-12  1.06040E-13
  5.250E-01  2.09899E-05  8.25260E-10  2.57069E-11  3.32215E-12  1.03485E-13
  5.500E-01  2.30365E-05  7.52092E-10  2.39593E-11  3.17177E-12  1.01043E-13
  5.750E-01  2.51783E-05  6.88221E-10  2.23884E-11  3.03435E-12  9.87094E-14
  6.000E-01  2.74153E-05  6.32143E-10  2.09711E-11  2.90828E-12  9.64809E-14
  6.250E-01  2.97475E-05  5.82640E-10  1.96881E-11  2.79222E-12  9.43522E-14
  6.500E-01  3.21749E-05  5.38725E-10  1.85227E-11  2.68504E-12  9.23181E-14
  6.750E-01  3.46974E-05  4.99589E-10  1.74610E-11  2.58576E-12  9.03735E-14
  7.000E-01  3.73152E-05  4.64564E-10  1.64908E-11  2.49353E-12  8.85134E-14
  7.250E-01  4.00281E-05  4.33094E-10  1.56019E-11  2.40764E-12  8.67330E-14
  7.500E-01  4.28362E-05  4.04715E-10  1.47853E-11  2.32746E-12  8.50277E-14
  7.750E-01  4.57395E-05  3.79034E-10  1.40333E-11  2.25243E-12  8.33932E-14
  8.000E-01  4.87380E-05  3.55721E-10  1.33391E-11  2.18209E-12  8.18254E-14
  8.250E-01  5.18317E-05  3.34493E-10  1.26970E-11  2.11599E-12  8.03205E-14
  8.500E-01  5.50205E-05  3.15109E-10  1.21017E-11  2.05378E-12  7.88748E-14
  8.750E-01  5.83045E-05  2.97362E-10  1.15488E-11  1.99511E-12  7.74851E-14
  9.000E-01  6.16838E-05  2.81073E-10  1.10343E-11  1.93970E-12  7.61481E-14
  9.250E-01  6.51582E-05  2.66085E-10  1.05546E-11  1.88728E-12  7.48611E-14
  9.500E-01  6.87277E-05  2.52264E-10  1.01066E-11  1.83762E-12  7.36212E-14
  9.750E-01  7.23925E-05  2.39493E-10  9.68759E-12  1.79050E-12  7.24258E-14
  1.000E+00  7.61524E-05  2.27667E-10  9.29502E-12  1.74573E-12  7.12728E-14
  1.100E+00  9.21439E-05  1.88150E-10  7.94823E-12  1.58700E-12  6.70406E-14
  1.200E+00  1.09658E-04  1.58093E-10  6.88268E-12  1.45471E-12  6.33308E-14
  1.300E+00  1.28695E-04  1.34701E-10  6.02416E-12  1.34276E-12  6.00507E-14
  1.400E+00  1.49255E-04  1.16141E-10  5.32157E-12  1.24681E-12  5.71279E-14
  1.500E+00  1.71338E-04  1.01167E-10  4.73880E-12  1.16364E-12  5.45057E-14
  1.600E+00  1.94942E-04  8.89127E-11  4.24966E-12  1.09087E-12  5.21385E-14
  1.700E+00  2.20070E-04  7.87566E-11  3.83484E-12  1.02667E-12  4.99899E-14
  1.800E+00  2.46720E-04  7.02459E-11  3.47977E-12  9.69594E-13  4.80300E-14
  1.900E+00  2.74892E-04  6.30434E-11  3.17334E-12  9.18530E-13  4.62340E-14
  2.000E+00  3.04586E-04  5.68942E-11  2.90692E-12  8.72572E-13  4.45817E-14
  2.100E+00  3.35803E-04  5.16025E-11  2.67372E-12  8.30992E-13  4.30558E-14
  2.200E+00  3.68542E-04  4.70160E-11  2.46836E-12  7.93192E-13  4.16419E-14
  2.300E+00  4.02802E-04  4.30146E-11  2.28651E-12  7.58679E-13  4.03276E-14
  2.400E+00  4.38585E-04  3.95031E-11  2.12465E-12  7.27043E-13  3.91025E-14
  2.500E+00  4.75889E-04  3.64045E-11  1.97992E-12  6.97938E-13  3.79573E-14
  2.600E+00  5.14715E-04  3.36565E-11  1.84994E-12  6.71072E-13  3.68843E-14
  2.700E+00  5.55063E-04  3.12083E-11  1.73274E-12  6.46196E-13  3.58766E-14
  2.800E+00  5.96931E-04  2.90177E-11  1.62667E-12  6.23097E-13  3.49282E-14
  2.900E+00  6.40321E-04  2.70498E-11  1.53035E-12  6.01591E-13  3.40338E-14
  3.000E+00  6.85233E-04  2.52754E-11  1.44259E-12  5.81520E-13  3.31888E-14
  3.100E+00  7.31665E-04  2.36700E-11  1.36240E-12  5.62743E-13  3.23890E-14
  3.200E+00  7.79618E-04  2.22128E-11  1.28892E-12  5.45140E-13  3.16308E-14
  3.300E+00  8.29092E-04  2.08861E-11  1.22140E-12  5.28603E-13  3.09109E-14
  3.400E+00  8.80086E-04  1.96747E-11  1.15922E-12  5.13040E-13  3.02264E-14
  3.500E+00  9.32601E-04  1.85656E-11  1.10180E-12  4.98365E-13  2.95745E-14
  3.600E+00  9.86636E-04  1.75478E-11  1.04867E-12  4.84506E-13  2.89530E-14
  3.700E+00  1.04219E-03  1.66113E-11  9.99410E-13  4.71397E-13  2.83597E-14
  3.800E+00  1.09927E-03  1.57478E-11  9.53642E-13  4.58977E-13  2.77927E-14
  3.900E+00  1.15786E-03  1.49499E-11  9.11039E-13  4.47194E-13  2.72501E-14
  4.000E+00  1.21797E-03  1.42111E-11  8.71313E-13  4.36000E-13  2.67304E-14
  4.100E+00  1.27961E-03  1.35257E-11  8.34205E-13  4.25352E-13  2.62321E-14
  4.200E+00  1.34276E-03  1.28887E-11  7.99486E-13  4.15211E-13  2.57538E-14
  4.300E+00  1.40743E-03  1.22956E-11  7.66954E-13  4.05542E-13  2.52944E-14
  4.400E+00  1.47362E-03  1.17425E-11  7.36424E-13  3.96312E-13  2.48527E-14
  4.500E+00  1.54133E-03  1.12258E-11  7.07735E-13  3.87492E-13  2.44276E-14
  4.600E+00  1.61056E-03  1.07425E-11  6.80737E-13  3.79056E-13  2.40183E-14
  4.700E+00  1.68131E-03  1.02898E-11  6.55299E-13  3.70979E-13  2.36237E-14
  4.800E+00  1.75357E-03  9.86500E-12  6.31302E-13  3.63238E-13  2.32431E-14
  4.900E+00  1.82735E-03  9.46598E-12  6.08636E-13  3.55813E-13  2.28758E-14
  5.000E+00  1.90265E-03  9.09066E-12  5.87203E-13  3.48685E-13  2.25210E-14
  5.100E+00  1.97947E-03  8.73721E-12  5.66915E-13  3.41836E-13  2.21780E-14
  5.200E+00  2.05780E-03  8.40395E-12  5.47689E-13  3.35251E-13  2.18464E-14
  5.300E+00  2.13765E-03  8.08939E-12  5.29452E-13  3.28914E-13  2.15254E-14
  5.400E+00  2.21902E-03  7.79214E-12  5.12137E-13  3.22812E-13  2.12146E-14
  5.500E+00  2.30190E-03  7.51096E-12  4.95680E-13  3.16931E-13  2.09135E-14
  5.600E+00  2.38630E-03  7.24471E-12  4.80026E-13  3.11261E-13  2.06216E-14
  5.700E+00  2.47222E-03  6.99235E-12  4.65122E-13  3.05789E-13  2.03385E-14
  5.800E+00  2.55965E-03  6.75294E-12  4.50920E-13  3.00506E-13  2.00637E-14
  5.900E+00  2.64859E-03  6.52560E-12  4.37377E-13  2.95402E-13  1.97970E-14
  6.000E+00  2.73905E-03  6.30953E-12  4.24451E-13  2.90468E-13  1.95379E-14
  6.100E+00  2.83103E-03  6.10400E-12  4.12105E-13  2.85696E-13  1.92861E-14
  6.200E+00  2.92452E-03  5.90834E-12  4.00304E-13  2.81077E-13  1.90413E-14
  6.300E+00  3.01952E-03  5.72193E-12  3.89017E-13  2.76605E-13  1.88032E-14
  6.400E+00  3.11604E-03  5.54418E-12  3.78213E-13  2.72273E-13  1.85715E-14
  6.500E+00  3.21407E-03  5.37458E-12  3.67864E-13  2.68074E-13  1.83460E-14
  6.600E+00  3.31362E-03  5.21263E-12  3.57946E-13  2.64002E-13  1.81263E-14
  6.700E+00  3.41468E-03  5.05788E-12  3.48434E-13  2.60052E-13  1.79123E-14
  6.800E+00  3.51725E-03  4.90991E-12  3.39306E-13  2.56217E-13  1.77038E-14
  6.900E+00  3.62133E-03  4.76832E-12  3.30541E-13  2.52494E-13  1.75004E-14
  7.000E+00  3.72692E-03  4.63276E-12  3.22121E-13  2.48877E-13  1.73021E-14
  7.100E+00  3.83403E-03  4.50289E-12  3.14026E-13  2.45362E-13  1.71086E-14
  7.200E+00  3.94265E-03  4.37839E-12  3.06240E-13  2.41944E-13  1.69198E-14
  7.300E+00  4.05278E-03  4.25898E-12  2.98748E-13  2.38620E-13  1.67355E-14
  7.400E+00  4.16442E-03  4.14437E-12  2.91534E-13  2.35386E-13  1.65554E-14
  7.500E+00  4.27757E-03  4.03432E-12  2.84585E-13  2.32238E-13  1.63796E-14
  7.600E+00  4.39223E-03  3.92859E-12  2.77887E-13  2.29172E-13  1.62077E-14
  7.700E+00  4.50840E-03  3.82695E-12  2.71429E-13  2.26186E-13  1.60397E-14
  7.800E+00  4.62608E-03  3.72919E-12  2.65199E-13  2.23277E-13  1.58755E-14
  7.900E+00  4.74527E-03  3.63513E-12  2.59187E-13  2.20441E-13  1.57148E-14
  8.000E+00  4.86597E-03  3.54457E-12  2.53381E-13  2.17676E-13  1.55577E-14
  8.100E+00  4.98817E-03  3.45734E-12  2.47774E-13  2.14979E-13  1.54039E-14
  8.200E+00  5.11188E-03  3.37328E-12  2.42354E-13  2.12348E-13  1.52534E-14
  8.300E+00  5.23711E-03  3.29225E-12  2.37115E-13  2.09780E-13  1.51060E-14
  8.400E+00  5.36383E-03  3.21409E-12  2.32048E-13  2.07273E-13  1.49617E-14
  8.500E+00  5.49207E-03  3.13868E-12  2.27146E-13  2.04825E-13  1.48203E-14
  8.600E+00  5.62181E-03  3.06588E-12  2.22401E-13  2.02434E-13  1.46818E-14
  8.700E+00  5.75306E-03  2.99558E-12  2.17807E-13  2.00098E-13  1.45461E-14
  8.800E+00  5.88581E-03  2.92766E-12  2.13356E-13  1.97815E-13  1.44130E-14
  8.900E+00  6.02007E-03  2.86202E-12  2.09044E-13  1.95583E-13  1.42826E-14
  9.000E+00  6.15583E-03  2.79855E-12  2.04865E-13  1.93401E-13  1.41547E-14
  9.100E+00  6.29310E-03  2.73717E-12  2.00812E-13  1.91266E-13  1.40292E-14
  9.200E+00  6.43187E-03  2.67778E-12  1.96881E-13  1.89178E-13  1.39061E-14
  9.300E+00  6.57214E-03  2.62029E-12  1.93068E-13  1.87135E-13  1.37853E-14
  9.400E+00  6.71392E-03  2.56463E-12  1.89366E-13  1.85135E-13  1.36668E-14
  9.500E+00  6.85720E-03  2.51071E-12  1.85772E-13  1.83177E-13  1.35504E-14
  9.600E+00  7.00198E-03  2.45848E-12  1.82282E-13  1.81260E-13  1.34362E-14
  9.700E+00  7.14827E-03  2.40785E-12  1.78891E-13  1.79382E-13  1.33240E-14
  9.800E+00  7.29605E-03  2.35876E-12  1.75596E-13  1.77542E-13  1.32138E-14
  9.900E+00  7.44534E-03  2.31115E-12  1.72394E-13  1.75740E-13  1.31056E-14
  1.000E+01  7.59612E-03  2.26497E-12  1.69280E-13  1.73973E-13  1.29992E-14
  1.025E+01  7.97965E-03  2.15536E-12  1.61862E-13  1.69708E-13  1.27413E-14
  1.050E+01  8.37255E-03  2.05349E-12  1.54931E-13  1.65645E-13  1.24941E-14
  1.075E+01  8.77480E-03  1.95865E-12  1.48444E-13  1.61770E-13  1.22570E-14
  1.100E+01  9.18641E-03  1.87020E-12  1.42364E-13  1.58071E-13  1.20294E-14
  1.125E+01  9.60736E-03  1.78758E-12  1.36658E-13  1.54536E-13  1.18106E-14
  1.150E+01  1.00376E-02  1.71029E-12  1.31294E-13  1.51155E-13  1.16002E-14
  1.175E+01  1.04773E-02  1.63788E-12  1.26246E-13  1.47917E-13  1.13976E-14
  1.200E+01  1.09262E-02  1.56995E-12  1.21488E-13  1.44813E-13  1.12025E-14
  1.225E+01  1.13844E-02  1.50614E-12  1.16999E-13  1.41836E-13  1.10143E-14
  1.250E+01  1.18520E-02  1.44612E-12  1.12759E-13  1.38977E-13  1.08328E-14
  1.275E+01  1.23288E-02  1.38960E-12  1.08749E-13  1.36230E-13  1.06575E-14
  1.300E+01  1.28150E-02  1.33630E-12  1.04953E-13  1.33588E-13  1.04882E-14
  1.325E+01  1.33104E-02  1.28600E-12  1.01355E-13  1.31046E-13  1.03245E-14
  1.350E+01  1.38150E-02  1.23846E-12  9.79422E-14  1.28597E-13  1.01661E-14
  1.375E+01  1.43290E-02  1.19349E-12  9.47014E-14  1.26237E-13  1.00127E-14
  1.400E+01  1.48521E-02  1.15091E-12  9.16212E-14  1.23961E-13  9.86424E-15
  1.425E+01  1.53845E-02  1.11056E-12  8.86910E-14  1.21765E-13  9.72032E-15
  1.450E+01  1.59262E-02  1.07227E-12  8.59012E-14  1.19643E-13  9.58078E-15
  1.475E+01  1.64770E-02  1.03591E-12  8.32428E-14  1.17594E-13  9.44539E-15
  1.500E+01  1.70371E-02  1.00136E-12  8.07075E-14  1.15612E-13  9.31399E-15
