 #
 # Subroutine ELSEPA. Elastic scattering of electrons and positrons
 #                    by neutral atoms and positive ions
 #
 # Projectile: electron
 # Kinetic energy = 3.70000E+06 eV = 1.35973E+05 a.u.
 #
 # Element:  N,  Z =   7,  atomic weight = 1.40067E+01 g/mol
 #
 # Nuclear model: Fermi distribution
 #                Average radius = 2.57926E-13 cm
 #                Skin thickness = 5.46000E-14 cm
 #
 # Number of electrons =  7
 #
 # Electron density: Read from file z_007.den   
 #                   Number of data points =  701
 #                   Volume integral = 7.00000E+00
 #
 # Furness-McCarthy exchange potential
 #
 # Total elastic cross section = 2.64241E-19 cm**2 = 9.43623E-03 a0**2
 # 1st transport cross section = 4.39991E-24 cm**2 = 1.57123E-07 a0**2
 # 2nd transport cross section = 1.26041E-23 cm**2 = 4.50100E-07 a0**2
 #
 #
 # Differential cross section:                       MU=(1-COS(THETA))/2
 #
 #  THETA        MU          DCS          DCS        Sherman      error
 #  (deg)                 (cm**2/sr)   (a0**2/sr)    function
 #----------------------------------------------------------------------
  0.000E+00  0.00000E+00  3.30591E-14  1.18056E+03  0.00000E+00  1.0E-07
  1.000E-04  7.61557E-13  3.30590E-14  1.18056E+03  0.00000E+00  1.0E-07
  1.250E-04  1.18994E-12  3.30590E-14  1.18056E+03  0.00000E+00  1.0E-07
  1.500E-04  1.71346E-12  3.30589E-14  1.18056E+03  0.00000E+00  1.0E-07
  1.750E-04  2.33225E-12  3.30589E-14  1.18055E+03  0.00000E+00  1.0E-07
  2.000E-04  3.04617E-12  3.30588E-14  1.18055E+03  0.00000E+00  1.0E-07
  2.250E-04  3.85530E-12  3.30587E-14  1.18055E+03  0.00000E+00  1.0E-07
  2.500E-04  4.75964E-12  3.30587E-14  1.18055E+03  0.00000E+00  1.0E-07
  2.750E-04  5.75917E-12  3.30586E-14  1.18054E+03  0.00000E+00  1.0E-07
  3.000E-04  6.85391E-12  3.30585E-14  1.18054E+03  0.00000E+00  1.0E-07
  3.250E-04  8.04379E-12  3.30583E-14  1.18053E+03  0.00000E+00  1.0E-07
  3.500E-04  9.32893E-12  3.30582E-14  1.18053E+03  0.00000E+00  1.0E-07
  3.750E-04  1.07092E-11  3.30581E-14  1.18053E+03  0.00000E+00  1.0E-07
  4.000E-04  1.21847E-11  3.30580E-14  1.18052E+03  0.00000E+00  1.0E-07
  4.250E-04  1.37554E-11  3.30578E-14  1.18052E+03  0.00000E+00  1.0E-07
  4.500E-04  1.54213E-11  3.30577E-14  1.18051E+03  0.00000E+00  1.0E-07
  4.750E-04  1.71823E-11  3.30575E-14  1.18050E+03  0.00000E+00  1.0E-07
  5.000E-04  1.90386E-11  3.30573E-14  1.18050E+03  0.00000E+00  1.0E-07
  5.250E-04  2.09900E-11  3.30571E-14  1.18049E+03  0.00000E+00  1.0E-07
  5.500E-04  2.30367E-11  3.30569E-14  1.18048E+03  0.00000E+00  1.0E-07
  5.750E-04  2.51785E-11  3.30567E-14  1.18048E+03  0.00000E+00  1.0E-07
  6.000E-04  2.74156E-11  3.30565E-14  1.18047E+03  0.00000E+00  1.0E-07
  6.250E-04  2.97478E-11  3.30563E-14  1.18046E+03  0.00000E+00  1.0E-07
  6.500E-04  3.21752E-11  3.30561E-14  1.18045E+03  0.00000E+00  1.0E-07
  6.750E-04  3.46979E-11  3.30558E-14  1.18045E+03  0.00000E+00  1.0E-07
  7.000E-04  3.73157E-11  3.30556E-14  1.18044E+03  0.00000E+00  1.0E-07
  7.250E-04  4.00286E-11  3.30553E-14  1.18043E+03  0.00000E+00  1.0E-07
  7.500E-04  4.28368E-11  3.30551E-14  1.18042E+03  0.00000E+00  1.0E-07
  7.750E-04  4.57402E-11  3.30548E-14  1.18041E+03  0.00000E+00  1.0E-07
  8.000E-04  4.87388E-11  3.30545E-14  1.18040E+03  0.00000E+00  1.0E-07
  8.250E-04  5.18325E-11  3.30542E-14  1.18039E+03  0.00000E+00  1.0E-07
  8.500E-04  5.50215E-11  3.30539E-14  1.18038E+03  0.00000E+00  1.0E-07
  8.750E-04  5.83057E-11  3.30536E-14  1.18037E+03  0.00000E+00  1.0E-07
  9.000E-04  6.16850E-11  3.30533E-14  1.18035E+03  0.00000E+00  1.0E-07
  9.250E-04  6.51595E-11  3.30530E-14  1.18034E+03  0.00000E+00  1.0E-07
  9.500E-04  6.87293E-11  3.30526E-14  1.18033E+03  0.00000E+00  1.0E-07
  9.750E-04  7.23943E-11  3.30523E-14  1.18032E+03  0.00000E+00  1.0E-07
  1.000E-03  7.61544E-11  3.30519E-14  1.18031E+03  0.00000E+00  1.0E-07
  1.250E-03  1.18991E-10  3.30479E-14  1.18016E+03  0.00000E+00  1.0E-07
  1.500E-03  1.71347E-10  3.30430E-14  1.17999E+03  0.00000E+00  1.0E-07
  1.750E-03  2.33223E-10  3.30372E-14  1.17978E+03  0.00000E+00  1.0E-07
  2.000E-03  3.04617E-10  3.30305E-14  1.17954E+03  0.00000E+00  1.0E-07
  2.250E-03  3.85531E-10  3.30229E-14  1.17927E+03  0.00000E+00  1.0E-07
  2.500E-03  4.75965E-10  3.30144E-14  1.17897E+03  0.00000E+00  1.0E-07
  2.750E-03  5.75917E-10  3.30050E-14  1.17863E+03  0.00000E+00  1.0E-07
  3.000E-03  6.85389E-10  3.29948E-14  1.17826E+03  0.00000E+00  1.0E-07
  3.250E-03  8.04380E-10  3.29836E-14  1.17787E+03  0.00000E+00  1.0E-07
  3.500E-03  9.32891E-10  3.29716E-14  1.17744E+03  0.00000E+00  1.0E-07
  3.750E-03  1.07092E-09  3.29587E-14  1.17698E+03  0.00000E+00  1.0E-07
  4.000E-03  1.21847E-09  3.29449E-14  1.17648E+03  0.00000E+00  1.0E-07
  4.250E-03  1.37554E-09  3.29302E-14  1.17596E+03  0.00000E+00  1.0E-07
  4.500E-03  1.54213E-09  3.29146E-14  1.17540E+03  0.00000E+00  1.0E-07
  4.750E-03  1.71823E-09  3.28982E-14  1.17481E+03  0.00000E+00  1.0E-07
  5.000E-03  1.90386E-09  3.28808E-14  1.17420E+03  0.00000E+00  1.0E-07
  5.250E-03  2.09900E-09  3.28626E-14  1.17355E+03  0.00000E+00  1.0E-07
  5.500E-03  2.30367E-09  3.28436E-14  1.17287E+03  0.00000E+00  1.0E-07
  5.750E-03  2.51785E-09  3.28236E-14  1.17215E+03  0.00000E+00  1.0E-07
  6.000E-03  2.74156E-09  3.28028E-14  1.17141E+03  0.00000E+00  1.0E-07
  6.250E-03  2.97478E-09  3.27812E-14  1.17064E+03  0.00000E+00  1.0E-07
  6.500E-03  3.21752E-09  3.27587E-14  1.16983E+03  0.00000E+00  1.0E-07
  6.750E-03  3.46978E-09  3.27353E-14  1.16900E+03  0.00000E+00  1.0E-07
  7.000E-03  3.73156E-09  3.27110E-14  1.16813E+03  0.00000E+00  1.0E-07
  7.250E-03  4.00286E-09  3.26859E-14  1.16724E+03  0.00000E+00  1.0E-07
  7.500E-03  4.28368E-09  3.26600E-14  1.16631E+03  0.00000E+00  1.0E-07
  7.750E-03  4.57402E-09  3.26332E-14  1.16535E+03  0.00000E+00  1.0E-07
  8.000E-03  4.87388E-09  3.26055E-14  1.16436E+03  0.00000E+00  1.0E-07
  8.250E-03  5.18326E-09  3.25770E-14  1.16335E+03  0.00000E+00  1.0E-07
  8.500E-03  5.50215E-09  3.25477E-14  1.16230E+03  0.00000E+00  1.0E-07
  8.750E-03  5.83057E-09  3.25175E-14  1.16122E+03  0.00000E+00  1.0E-07
  9.000E-03  6.16850E-09  3.24865E-14  1.16012E+03  0.00000E+00  1.0E-07
  9.250E-03  6.51596E-09  3.24547E-14  1.15898E+03  0.00000E+00  1.0E-07
  9.500E-03  6.87293E-09  3.24221E-14  1.15781E+03  0.00000E+00  1.0E-07
  9.750E-03  7.23942E-09  3.23886E-14  1.15662E+03  0.00000E+00  1.0E-07
  1.000E-02  7.61544E-09  3.23543E-14  1.15539E+03  0.00000E+00  1.0E-07
  1.250E-02  1.18991E-08  3.19673E-14  1.14157E+03  0.00000E+00  1.0E-07
  1.500E-02  1.71347E-08  3.15033E-14  1.12500E+03  0.00000E+00  1.0E-07
  1.750E-02  2.33223E-08  3.09674E-14  1.10587E+03  0.00000E+00  1.0E-07
  2.000E-02  3.04617E-08  3.03651E-14  1.08436E+03  0.00000E+00  1.0E-07
  2.250E-02  3.85531E-08  2.97028E-14  1.06070E+03  0.00000E+00  1.0E-07
  2.500E-02  4.75965E-08  2.89868E-14  1.03514E+03  0.00000E+00  1.0E-07
  2.750E-02  5.75917E-08  2.82239E-14  1.00789E+03  0.00000E+00  1.0E-07
  3.000E-02  6.85389E-08  2.74211E-14  9.79226E+02  0.00000E+00  1.0E-07
  3.250E-02  8.04380E-08  2.65852E-14  9.49374E+02  0.00000E+00  1.0E-07
  3.500E-02  9.32891E-08  2.57229E-14  9.18581E+02  0.00000E+00  1.0E-07
  3.750E-02  1.07092E-07  2.48407E-14  8.87079E+02  0.00000E+00  1.0E-07
  4.000E-02  1.21847E-07  2.39450E-14  8.55090E+02  0.00000E+00  1.0E-07
  4.250E-02  1.37554E-07  2.30414E-14  8.22825E+02  0.00000E+00  1.0E-07
  4.500E-02  1.54213E-07  2.21356E-14  7.90477E+02  0.00000E+00  1.0E-07
  4.750E-02  1.71823E-07  2.12325E-14  7.58226E+02  0.00000E+00  1.0E-07
  5.000E-02  1.90386E-07  2.03366E-14  7.26232E+02  0.00000E+00  1.0E-07
  5.250E-02  2.09900E-07  1.94519E-14  6.94641E+02  0.00000E+00  1.0E-07
  5.500E-02  2.30367E-07  1.85821E-14  6.63578E+02  0.00000E+00  1.0E-07
  5.750E-02  2.51785E-07  1.77301E-14  6.33155E+02  0.00000E+00  1.0E-07
  6.000E-02  2.74156E-07  1.68987E-14  6.03463E+02  0.00000E+00  1.0E-07
  6.250E-02  2.97478E-07  1.60899E-14  5.74581E+02  0.00000E+00  1.0E-07
  6.500E-02  3.21752E-07  1.53055E-14  5.46571E+02  0.00000E+00  1.0E-07
  6.750E-02  3.46978E-07  1.45470E-14  5.19482E+02  0.00000E+00  1.0E-07
  7.000E-02  3.73156E-07  1.38153E-14  4.93352E+02  0.00000E+00  1.0E-07
  7.250E-02  4.00286E-07  1.31111E-14  4.68205E+02  0.00000E+00  1.0E-07
  7.500E-02  4.28368E-07  1.24349E-14  4.44058E+02  0.00000E+00  1.0E-07
  7.750E-02  4.57402E-07  1.17869E-14  4.20916E+02  0.00000E+00  1.0E-07
  8.000E-02  4.87388E-07  1.11669E-14  3.98778E+02  0.00000E+00  1.0E-07
  8.250E-02  5.18325E-07  1.05749E-14  3.77636E+02  0.00000E+00  1.0E-07
  8.500E-02  5.50215E-07  1.00104E-14  3.57476E+02  0.00000E+00  1.0E-07
  8.750E-02  5.83057E-07  9.47279E-15  3.38279E+02  0.00000E+00  1.0E-07
  9.000E-02  6.16850E-07  8.96156E-15  3.20023E+02  0.00000E+00  1.0E-07
  9.250E-02  6.51596E-07  8.47594E-15  3.02681E+02  0.00000E+00  1.0E-07
  9.500E-02  6.87293E-07  8.01513E-15  2.86226E+02  0.00000E+00  1.0E-07
  9.750E-02  7.23942E-07  7.57829E-15  2.70626E+02  0.00000E+00  1.0E-07
  1.000E-01  7.61543E-07  7.16452E-15  2.55850E+02  0.00000E+00  1.0E-07
  1.250E-01  1.18991E-06  4.09398E-15  1.46199E+02  0.00000E+00  1.0E-07
  1.500E-01  1.71347E-06  2.38708E-15  8.52441E+01  0.00000E+00  1.0E-07
  1.750E-01  2.33223E-06  1.44003E-15  5.14244E+01  0.00000E+00  1.0E-07
  2.000E-01  3.04617E-06  9.03572E-16  3.22671E+01  0.00000E+00  1.0E-07
  2.250E-01  3.85531E-06  5.89986E-16  2.10688E+01  0.00000E+00  1.0E-07
  2.500E-01  4.75964E-06  4.00021E-16  1.42850E+01  0.00000E+00  1.0E-07
  2.750E-01  5.75916E-06  2.80688E-16  1.00235E+01  0.00000E+00  1.0E-07
  3.000E-01  6.85388E-06  2.03055E-16  7.25124E+00  0.00000E+00  1.0E-07
  3.250E-01  8.04378E-06  1.50876E-16  5.38790E+00  0.00000E+00  1.0E-07
  3.500E-01  9.32888E-06  1.14744E-16  4.09758E+00  0.00000E+00  1.0E-07
  3.750E-01  1.07092E-05  8.90412E-17  3.17972E+00  0.00000E+00  1.0E-07
  4.000E-01  1.21846E-05  7.03128E-17  2.51092E+00  0.00000E+00  1.0E-07
  4.250E-01  1.37553E-05  5.63717E-17  2.01307E+00  0.00000E+00  1.0E-07
  4.500E-01  1.54212E-05  4.57957E-17  1.63539E+00  0.00000E+00  1.0E-07
  4.750E-01  1.71822E-05  3.76368E-17  1.34404E+00  0.00000E+00  1.0E-07
  5.000E-01  1.90385E-05  3.12485E-17  1.11590E+00  0.00000E+00  1.0E-07
  5.250E-01  2.09899E-05  2.61800E-17  9.34904E-01  0.00000E+00  1.0E-07
  5.500E-01  2.30365E-05  2.21112E-17  7.89604E-01  0.00000E+00  1.0E-07
  5.750E-01  2.51783E-05  1.88104E-17  6.71732E-01  0.00000E+00  1.0E-07
  6.000E-01  2.74153E-05  1.61074E-17  5.75205E-01  0.00000E+00  1.0E-07
  6.250E-01  2.97475E-05  1.38751E-17  4.95488E-01  0.00000E+00  1.0E-07
  6.500E-01  3.21749E-05  1.20172E-17  4.29144E-01  0.00000E+00  1.0E-07
  6.750E-01  3.46974E-05  1.04603E-17  3.73543E-01  0.00000E+00  1.0E-07
  7.000E-01  3.73152E-05  9.14711E-18  3.26649E-01  0.00000E+00  1.0E-07
  7.250E-01  4.00281E-05  8.03307E-18  2.86866E-01  0.00000E+00  1.0E-07
  7.500E-01  4.28362E-05  7.08284E-18  2.52933E-01  0.00000E+00  1.0E-07
  7.750E-01  4.57395E-05  6.26829E-18  2.23845E-01  0.00000E+00  1.1E-07
  8.000E-01  4.87380E-05  5.56680E-18  1.98794E-01  0.00000E+00  1.0E-07
  8.250E-01  5.18317E-05  4.96006E-18  1.77127E-01  0.00000E+00  1.0E-07
  8.500E-01  5.50205E-05  4.43314E-18  1.58310E-01  0.00000E+00  1.2E-07
  8.750E-01  5.83045E-05  3.97381E-18  1.41907E-01  0.00000E+00  1.0E-07
  9.000E-01  6.16838E-05  3.57194E-18  1.27556E-01  0.00000E+00  1.0E-07
  9.250E-01  6.51582E-05  3.21918E-18  1.14959E-01  0.00000E+00  1.4E-07
  9.500E-01  6.87277E-05  2.90852E-18  1.03865E-01  0.00000E+00  1.0E-07
  9.750E-01  7.23925E-05  2.63411E-18  9.40658E-02  0.00000E+00  1.0E-07
  1.000E+00  7.61524E-05  2.39102E-18  8.53850E-02  0.00000E+00  1.0E-07
  1.100E+00  9.21439E-05  1.65738E-18  5.91859E-02  0.00000E+00  1.0E-07
  1.200E+00  1.09658E-04  1.18311E-18  4.22496E-02  0.00000E+00  1.0E-07
  1.300E+00  1.28695E-04  8.66063E-19  3.09277E-02  0.00000E+00  1.0E-07
  1.400E+00  1.49255E-04  6.47924E-19  2.31378E-02  0.00000E+00  1.0E-07
  1.500E+00  1.71338E-04  4.94034E-19  1.76423E-02  0.00000E+00  1.0E-07
  1.600E+00  1.94942E-04  3.83058E-19  1.36792E-02  0.00000E+00  1.0E-07
  1.700E+00  2.20070E-04  3.01457E-19  1.07652E-02  0.00000E+00  1.0E-07
  1.800E+00  2.46720E-04  2.40408E-19  8.58512E-03  0.00000E+00  1.0E-07
  1.900E+00  2.74892E-04  1.94019E-19  6.92853E-03  0.00000E+00  1.0E-07
  2.000E+00  3.04586E-04  1.58272E-19  5.65201E-03  0.00000E+00  1.0E-07
  2.100E+00  3.35803E-04  1.30376E-19  4.65581E-03  0.00000E+00  1.0E-07
  2.200E+00  3.68542E-04  1.08353E-19  3.86937E-03  0.00000E+00  1.0E-07
  2.300E+00  4.02802E-04  9.07834E-20  3.24193E-03  0.00000E+00  1.0E-07
  2.400E+00  4.38585E-04  7.66302E-20  2.73652E-03  0.00000E+00  1.0E-07
  2.500E+00  4.75889E-04  6.51278E-20  2.32575E-03  0.00000E+00  1.0E-07
  2.600E+00  5.14715E-04  5.57027E-20  1.98918E-03  0.00000E+00  1.0E-07
  2.700E+00  5.55063E-04  4.79212E-20  1.71130E-03  0.00000E+00  1.0E-07
  2.800E+00  5.96931E-04  4.14514E-20  1.48026E-03  0.00000E+00  1.0E-07
  2.900E+00  6.40321E-04  3.60369E-20  1.28690E-03  0.00000E+00  1.0E-07
  3.000E+00  6.85233E-04  3.14779E-20  1.12409E-03  0.00000E+00  1.0E-07
  3.100E+00  7.31665E-04  2.76172E-20  9.86229E-04  0.00000E+00  1.0E-07
  3.200E+00  7.79618E-04  2.43305E-20  8.68859E-04  0.00000E+00  1.0E-07
  3.300E+00  8.29092E-04  2.15184E-20  7.68437E-04  0.00000E+00  1.0E-07
  3.400E+00  8.80086E-04  1.91010E-20  6.82110E-04  0.00000E+00  1.0E-07
  3.500E+00  9.32601E-04  1.70137E-20  6.07571E-04  0.00000E+00  1.0E-07
  3.600E+00  9.86636E-04  1.52039E-20  5.42940E-04  0.00000E+00  1.0E-07
  3.700E+00  1.04219E-03  1.36284E-20  4.86679E-04  0.00000E+00  1.0E-07
  3.800E+00  1.09927E-03  1.22518E-20  4.37520E-04  0.00000E+00  1.0E-07
  3.900E+00  1.15786E-03  1.10447E-20  3.94414E-04  0.00000E+00  1.0E-07
  4.000E+00  1.21797E-03  9.98270E-21  3.56489E-04  0.00000E+00  1.0E-07
  4.100E+00  1.27961E-03  9.04533E-21  3.23015E-04  0.00000E+00  1.0E-07
  4.200E+00  1.34276E-03  8.21547E-21  2.93380E-04  0.00000E+00  1.0E-07
  4.300E+00  1.40743E-03  7.47864E-21  2.67067E-04  0.00000E+00  1.0E-07
  4.400E+00  1.47362E-03  6.82261E-21  2.43640E-04  0.00000E+00  1.0E-07
  4.500E+00  1.54133E-03  6.23697E-21  2.22726E-04  0.00000E+00  1.0E-07
  4.600E+00  1.61056E-03  5.71286E-21  2.04010E-04  0.00000E+00  1.0E-07
  4.700E+00  1.68131E-03  5.24267E-21  1.87219E-04  0.00000E+00  1.0E-07
  4.800E+00  1.75357E-03  4.81989E-21  1.72121E-04  0.00000E+00  1.0E-07
  4.900E+00  1.82735E-03  4.43889E-21  1.58516E-04  0.00000E+00  1.0E-07
  5.000E+00  1.90265E-03  4.09482E-21  1.46229E-04  0.00000E+00  1.0E-07
  5.100E+00  1.97947E-03  3.78345E-21  1.35110E-04  0.00000E+00  1.0E-07
  5.200E+00  2.05780E-03  3.50114E-21  1.25028E-04  0.00000E+00  1.0E-07
  5.300E+00  2.13765E-03  3.24468E-21  1.15869E-04  0.00000E+00  1.0E-07
  5.400E+00  2.21902E-03  3.01128E-21  1.07535E-04  0.00000E+00  1.0E-07
  5.500E+00  2.30190E-03  2.79851E-21  9.99365E-05  0.00000E+00  1.0E-07
  5.600E+00  2.38630E-03  2.60421E-21  9.29979E-05  0.00000E+00  1.0E-07
  5.700E+00  2.47222E-03  2.42648E-21  8.66513E-05  0.00000E+00  1.0E-07
  5.800E+00  2.55965E-03  2.26367E-21  8.08372E-05  0.00000E+00  1.0E-07
  5.900E+00  2.64859E-03  2.11429E-21  7.55028E-05  0.00000E+00  1.0E-07
  6.000E+00  2.73905E-03  1.97704E-21  7.06014E-05  0.00000E+00  1.0E-07
  6.100E+00  2.83103E-03  1.85075E-21  6.60916E-05  0.00000E+00  1.0E-07
  6.200E+00  2.92452E-03  1.73439E-21  6.19363E-05  0.00000E+00  1.0E-07
  6.300E+00  3.01952E-03  1.62704E-21  5.81026E-05  0.00000E+00  1.0E-07
  6.400E+00  3.11604E-03  1.52787E-21  5.45611E-05  0.00000E+00  1.0E-07
  6.500E+00  3.21407E-03  1.43614E-21  5.12854E-05  0.00000E+00  1.0E-07
  6.600E+00  3.31362E-03  1.35120E-21  4.82521E-05  0.00000E+00  1.0E-07
  6.700E+00  3.41468E-03  1.27244E-21  4.54398E-05  0.00000E+00  1.0E-07
  6.800E+00  3.51725E-03  1.19935E-21  4.28295E-05  0.00000E+00  1.0E-07
  6.900E+00  3.62133E-03  1.13143E-21  4.04041E-05  0.00000E+00  1.0E-07
  7.000E+00  3.72692E-03  1.06825E-21  3.81480E-05  0.00000E+00  1.0E-07
  7.100E+00  3.83403E-03  1.00943E-21  3.60473E-05  0.00000E+00  1.0E-07
  7.200E+00  3.94265E-03  9.54598E-22  3.40893E-05  0.00000E+00  1.0E-07
  7.300E+00  4.05278E-03  9.03442E-22  3.22625E-05  0.00000E+00  1.0E-07
  7.400E+00  4.16442E-03  8.55669E-22  3.05565E-05  0.00000E+00  1.0E-07
  7.500E+00  4.27757E-03  8.11014E-22  2.89618E-05  0.00000E+00  1.0E-07
  7.600E+00  4.39223E-03  7.69235E-22  2.74699E-05  0.00000E+00  1.0E-07
  7.700E+00  4.50840E-03  7.30113E-22  2.60728E-05  0.00000E+00  1.0E-07
  7.800E+00  4.62608E-03  6.93449E-22  2.47635E-05  0.00000E+00  1.0E-07
  7.900E+00  4.74527E-03  6.59058E-22  2.35354E-05  0.00000E+00  1.0E-07
  8.000E+00  4.86597E-03  6.26773E-22  2.23825E-05  0.00000E+00  1.0E-07
  8.100E+00  4.98817E-03  5.96443E-22  2.12994E-05  0.00000E+00  1.0E-07
  8.200E+00  5.11188E-03  5.67926E-22  2.02810E-05  0.00000E+00  1.0E-07
  8.300E+00  5.23711E-03  5.41093E-22  1.93228E-05  0.00000E+00  1.0E-07
  8.400E+00  5.36383E-03  5.15828E-22  1.84205E-05  0.00000E+00  1.0E-07
  8.500E+00  5.49207E-03  4.92020E-22  1.75704E-05  0.00000E+00  1.0E-07
  8.600E+00  5.62181E-03  4.69572E-22  1.67687E-05  0.00000E+00  1.0E-07
  8.700E+00  5.75306E-03  4.48389E-22  1.60123E-05  0.00000E+00  1.0E-07
  8.800E+00  5.88581E-03  4.28388E-22  1.52980E-05  0.00000E+00  1.0E-07
  8.900E+00  6.02007E-03  4.09490E-22  1.46232E-05  0.00000E+00  1.0E-07
  9.000E+00  6.15583E-03  3.91624E-22  1.39851E-05  0.00000E+00  1.0E-07
  9.100E+00  6.29310E-03  3.74721E-22  1.33815E-05  0.00000E+00  1.0E-07
  9.200E+00  6.43187E-03  3.58721E-22  1.28102E-05  0.00000E+00  1.0E-07
  9.300E+00  6.57214E-03  3.43567E-22  1.22690E-05  0.00000E+00  1.0E-07
  9.400E+00  6.71392E-03  3.29204E-22  1.17561E-05  0.00000E+00  1.0E-07
  9.500E+00  6.85720E-03  3.15585E-22  1.12697E-05  0.00000E+00  1.0E-07
  9.600E+00  7.00198E-03  3.02663E-22  1.08083E-05  0.00000E+00  1.0E-07
  9.700E+00  7.14827E-03  2.90396E-22  1.03702E-05  0.00000E+00  1.0E-07
  9.800E+00  7.29605E-03  2.78744E-22  9.95413E-06  0.00000E+00  1.0E-07
  9.900E+00  7.44534E-03  2.67671E-22  9.55871E-06  0.00000E+00  1.0E-07
  1.000E+01  7.59612E-03  2.57143E-22  9.18273E-06  0.00000E+00  1.0E-07
  1.025E+01  7.97965E-03  2.33001E-22  8.32062E-06  0.00000E+00  1.0E-07
  1.050E+01  8.37255E-03  2.11628E-22  7.55737E-06  0.00000E+00  1.0E-07
  1.075E+01  8.77480E-03  1.92651E-22  6.87969E-06  0.00000E+00  1.0E-07
  1.100E+01  9.18641E-03  1.75755E-22  6.27632E-06  0.00000E+00  1.0E-07
  1.125E+01  9.60736E-03  1.60672E-22  5.73769E-06  0.00000E+00  1.0E-07
  1.150E+01  1.00376E-02  1.47173E-22  5.25564E-06  0.00000E+00  1.0E-07
  1.175E+01  1.04773E-02  1.35063E-22  4.82317E-06  0.00000E+00  1.0E-07
  1.200E+01  1.09262E-02  1.24173E-22  4.43430E-06  0.00000E+00  1.0E-07
  1.225E+01  1.13844E-02  1.14359E-22  4.08384E-06  0.00000E+00  1.0E-07
  1.250E+01  1.18520E-02  1.05496E-22  3.76734E-06  0.00000E+00  1.0E-07
  1.275E+01  1.23288E-02  9.74757E-23  3.48092E-06  0.00000E+00  1.0E-07
  1.300E+01  1.28150E-02  9.02031E-23  3.22121E-06  0.00000E+00  1.0E-07
  1.325E+01  1.33104E-02  8.35964E-23  2.98528E-06  0.00000E+00  1.0E-07
  1.350E+01  1.38150E-02  7.75836E-23  2.77056E-06  0.00000E+00  1.0E-07
  1.375E+01  1.43290E-02  7.21019E-23  2.57480E-06  0.00000E+00  1.0E-07
  1.400E+01  1.48521E-02  6.70958E-23  2.39604E-06  0.00000E+00  1.0E-07
  1.425E+01  1.53845E-02  6.25168E-23  2.23251E-06  0.00000E+00  1.0E-07
  1.450E+01  1.59262E-02  5.83218E-23  2.08271E-06  0.00000E+00  1.0E-07
  1.475E+01  1.64770E-02  5.44728E-23  1.94526E-06  0.00000E+00  1.0E-07
  1.500E+01  1.70371E-02  5.09361E-23  1.81896E-06  0.00000E+00  1.0E-07
  1.525E+01  1.76063E-02  4.76817E-23  1.70275E-06  0.00000E+00  1.0E-07
  1.550E+01  1.81848E-02  4.46831E-23  1.59566E-06  0.00000E+00  1.0E-07
