 #  Scattering field.
 #  All quantities in atomic units (a.u.), unless otherwise indicated.
 #  Z =   7, NELEC =   7,   projectile: electron
 #  Kinetic energy = 1.35973E+05 a.u. = 3.70000E+06 eV
 #
 #   i       r           r*V         r*Vst        r*Vex       r*Vpol       r*Wabs        rho_e
 #------------------------------------------------------------------------------------------------
     1  0.00000E+00 -0.00000E+00 -0.00000E+00  0.00000E+00  0.00000E+00  0.00000E+00  2.10991E+02
     2  1.21442E-07 -2.07893E-02 -2.07893E-02 -1.00694E-10  0.00000E+00  0.00000E+00  2.10991E+02
     3  2.45912E-07 -4.20967E-02 -4.20967E-02 -2.03889E-10  0.00000E+00  0.00000E+00  2.10981E+02
     4  3.73483E-07 -6.39344E-02 -6.39344E-02 -3.09646E-10  0.00000E+00  0.00000E+00  2.10972E+02
     5  5.04232E-07 -8.63155E-02 -8.63155E-02 -4.18030E-10  0.00000E+00  0.00000E+00  2.10962E+02
     6  6.38240E-07 -1.09253E-01 -1.09253E-01 -5.29105E-10  0.00000E+00  0.00000E+00  2.10952E+02
     7  7.75586E-07 -1.32761E-01 -1.32761E-01 -6.42938E-10  0.00000E+00  0.00000E+00  2.10942E+02
     8  9.16354E-07 -1.56852E-01 -1.56852E-01 -7.59599E-10  0.00000E+00  0.00000E+00  2.10931E+02
     9  1.06063E-06 -1.81542E-01 -1.81542E-01 -8.79157E-10  0.00000E+00  0.00000E+00  2.10921E+02
    10  1.20850E-06 -2.06843E-01 -2.06843E-01 -1.00169E-09  0.00000E+00  0.00000E+00  2.10911E+02
    11  1.36006E-06 -2.32772E-01 -2.32772E-01 -1.12726E-09  0.00000E+00  0.00000E+00  2.10900E+02
    12  1.51539E-06 -2.59343E-01 -2.59343E-01 -1.25595E-09  0.00000E+00  0.00000E+00  2.10889E+02
    13  1.67459E-06 -2.86571E-01 -2.86571E-01 -1.38785E-09  0.00000E+00  0.00000E+00  2.10878E+02
    14  1.83776E-06 -3.14472E-01 -3.14472E-01 -1.52302E-09  0.00000E+00  0.00000E+00  2.10867E+02
    15  2.00499E-06 -3.43062E-01 -3.43062E-01 -1.66155E-09  0.00000E+00  0.00000E+00  2.10856E+02
    16  2.17639E-06 -3.72357E-01 -3.72357E-01 -1.80353E-09  0.00000E+00  0.00000E+00  2.10845E+02
    17  2.35206E-06 -4.02373E-01 -4.02373E-01 -1.94904E-09  0.00000E+00  0.00000E+00  2.10834E+02
    18  2.53211E-06 -4.33128E-01 -4.33128E-01 -2.09818E-09  0.00000E+00  0.00000E+00  2.10823E+02
    19  2.71664E-06 -4.64639E-01 -4.64639E-01 -2.25102E-09  0.00000E+00  0.00000E+00  2.10811E+02
    20  2.90578E-06 -4.96923E-01 -4.96923E-01 -2.40767E-09  0.00000E+00  0.00000E+00  2.10800E+02
    21  3.09962E-06 -5.29998E-01 -5.29998E-01 -2.56822E-09  0.00000E+00  0.00000E+00  2.10788E+02
    22  3.29830E-06 -5.63882E-01 -5.63882E-01 -2.73277E-09  0.00000E+00  0.00000E+00  2.10776E+02
    23  3.50192E-06 -5.98594E-01 -5.98594E-01 -2.90143E-09  0.00000E+00  0.00000E+00  2.10765E+02
    24  3.71062E-06 -6.34152E-01 -6.34152E-01 -3.07429E-09  0.00000E+00  0.00000E+00  2.10753E+02
    25  3.92452E-06 -6.70575E-01 -6.70575E-01 -3.25146E-09  0.00000E+00  0.00000E+00  2.10741E+02
    26  4.14374E-06 -7.07882E-01 -7.07882E-01 -3.43305E-09  0.00000E+00  0.00000E+00  2.10729E+02
    27  4.36843E-06 -7.46093E-01 -7.46093E-01 -3.61918E-09  0.00000E+00  0.00000E+00  2.10717E+02
    28  4.59872E-06 -7.85228E-01 -7.85228E-01 -3.80996E-09  0.00000E+00  0.00000E+00  2.10705E+02
    29  4.83475E-06 -8.25306E-01 -8.25306E-01 -4.00551E-09  0.00000E+00  0.00000E+00  2.10693E+02
    30  5.07666E-06 -8.66349E-01 -8.66349E-01 -4.20594E-09  0.00000E+00  0.00000E+00  2.10681E+02
    31  5.32459E-06 -9.08376E-01 -9.08376E-01 -4.41140E-09  0.00000E+00  0.00000E+00  2.10669E+02
    32  5.57870E-06 -9.51408E-01 -9.51408E-01 -4.62200E-09  0.00000E+00  0.00000E+00  2.10657E+02
    33  5.83915E-06 -9.95466E-01 -9.95466E-01 -4.83788E-09  0.00000E+00  0.00000E+00  2.10645E+02
    34  6.10608E-06 -1.04057E+00 -1.04057E+00 -5.05917E-09  0.00000E+00  0.00000E+00  2.10633E+02
    35  6.37966E-06 -1.08674E+00 -1.08674E+00 -5.28602E-09  0.00000E+00  0.00000E+00  2.10622E+02
    36  6.66006E-06 -1.13400E+00 -1.13400E+00 -5.51856E-09  0.00000E+00  0.00000E+00  2.10610E+02
    37  6.94745E-06 -1.18238E+00 -1.18238E+00 -5.75696E-09  0.00000E+00  0.00000E+00  2.10598E+02
    38  7.24200E-06 -1.23188E+00 -1.23188E+00 -6.00135E-09  0.00000E+00  0.00000E+00  2.10587E+02
    39  7.54388E-06 -1.28254E+00 -1.28254E+00 -6.25190E-09  0.00000E+00  0.00000E+00  2.10575E+02
    40  7.85329E-06 -1.33437E+00 -1.33437E+00 -6.50877E-09  0.00000E+00  0.00000E+00  2.10564E+02
    41  8.17041E-06 -1.38739E+00 -1.38739E+00 -6.77212E-09  0.00000E+00  0.00000E+00  2.10553E+02
    42  8.49543E-06 -1.44164E+00 -1.44164E+00 -7.04213E-09  0.00000E+00  0.00000E+00  2.10542E+02
    43  8.82854E-06 -1.49712E+00 -1.49712E+00 -7.31898E-09  0.00000E+00  0.00000E+00  2.10531E+02
    44  9.16996E-06 -1.55385E+00 -1.55385E+00 -7.60284E-09  0.00000E+00  0.00000E+00  2.10520E+02
    45  9.51989E-06 -1.61186E+00 -1.61186E+00 -7.89390E-09  0.00000E+00  0.00000E+00  2.10510E+02
    46  9.87853E-06 -1.67117E+00 -1.67117E+00 -8.19235E-09  0.00000E+00  0.00000E+00  2.10499E+02
    47  1.02461E-05 -1.73180E+00 -1.73180E+00 -8.49841E-09  0.00000E+00  0.00000E+00  2.10489E+02
    48  1.06228E-05 -1.79376E+00 -1.79376E+00 -8.81226E-09  0.00000E+00  0.00000E+00  2.10479E+02
    49  1.10090E-05 -1.85707E+00 -1.85707E+00 -9.13412E-09  0.00000E+00  0.00000E+00  2.10470E+02
    50  1.14047E-05 -1.92175E+00 -1.92175E+00 -9.46422E-09  0.00000E+00  0.00000E+00  2.10461E+02
    51  1.18103E-05 -1.98782E+00 -1.98782E+00 -9.80277E-09  0.00000E+00  0.00000E+00  2.10452E+02
    52  1.22260E-05 -2.05528E+00 -2.05528E+00 -1.01500E-08  0.00000E+00  0.00000E+00  2.10443E+02
    53  1.26521E-05 -2.12416E+00 -2.12416E+00 -1.05062E-08  0.00000E+00  0.00000E+00  2.10435E+02
    54  1.30888E-05 -2.19446E+00 -2.19446E+00 -1.08715E-08  0.00000E+00  0.00000E+00  2.10427E+02
    55  1.35363E-05 -2.26620E+00 -2.26620E+00 -1.12463E-08  0.00000E+00  0.00000E+00  2.10419E+02
    56  1.39951E-05 -2.33938E+00 -2.33938E+00 -1.16308E-08  0.00000E+00  0.00000E+00  2.10412E+02
    57  1.44652E-05 -2.41402E+00 -2.41402E+00 -1.20253E-08  0.00000E+00  0.00000E+00  2.10405E+02
    58  1.49471E-05 -2.49011E+00 -2.49011E+00 -1.24300E-08  0.00000E+00  0.00000E+00  2.10398E+02
    59  1.54409E-05 -2.56766E+00 -2.56766E+00 -1.28452E-08  0.00000E+00  0.00000E+00  2.10392E+02
    60  1.59471E-05 -2.64668E+00 -2.64668E+00 -1.32714E-08  0.00000E+00  0.00000E+00  2.10387E+02
    61  1.64659E-05 -2.72714E+00 -2.72714E+00 -1.37087E-08  0.00000E+00  0.00000E+00  2.10381E+02
    62  1.69976E-05 -2.80906E+00 -2.80906E+00 -1.41574E-08  0.00000E+00  0.00000E+00  2.10376E+02
    63  1.75426E-05 -2.89243E+00 -2.89243E+00 -1.46180E-08  0.00000E+00  0.00000E+00  2.10371E+02
    64  1.81011E-05 -2.97722E+00 -2.97722E+00 -1.50908E-08  0.00000E+00  0.00000E+00  2.10367E+02
    65  1.86736E-05 -3.06342E+00 -3.06342E+00 -1.55762E-08  0.00000E+00  0.00000E+00  2.10363E+02
    66  1.92603E-05 -3.15101E+00 -3.15101E+00 -1.60744E-08  0.00000E+00  0.00000E+00  2.10359E+02
    67  1.98616E-05 -3.23997E+00 -3.23997E+00 -1.65859E-08  0.00000E+00  0.00000E+00  2.10356E+02
    68  2.04779E-05 -3.33026E+00 -3.33026E+00 -1.71112E-08  0.00000E+00  0.00000E+00  2.10353E+02
    69  2.11096E-05 -3.42185E+00 -3.42185E+00 -1.76505E-08  0.00000E+00  0.00000E+00  2.10350E+02
    70  2.17570E-05 -3.51469E+00 -3.51469E+00 -1.82044E-08  0.00000E+00  0.00000E+00  2.10347E+02
    71  2.24205E-05 -3.60873E+00 -3.60873E+00 -1.87733E-08  0.00000E+00  0.00000E+00  2.10344E+02
    72  2.31006E-05 -3.70393E+00 -3.70393E+00 -1.93576E-08  0.00000E+00  0.00000E+00  2.10341E+02
    73  2.37976E-05 -3.80021E+00 -3.80021E+00 -1.99579E-08  0.00000E+00  0.00000E+00  2.10338E+02
    74  2.45120E-05 -3.89750E+00 -3.89750E+00 -2.05746E-08  0.00000E+00  0.00000E+00  2.10335E+02
    75  2.52442E-05 -3.99573E+00 -3.99573E+00 -2.12082E-08  0.00000E+00  0.00000E+00  2.10332E+02
    76  2.59947E-05 -4.09480E+00 -4.09480E+00 -2.18594E-08  0.00000E+00  0.00000E+00  2.10328E+02
    77  2.67638E-05 -4.19463E+00 -4.19463E+00 -2.25286E-08  0.00000E+00  0.00000E+00  2.10325E+02
    78  2.75521E-05 -4.29509E+00 -4.29509E+00 -2.32166E-08  0.00000E+00  0.00000E+00  2.10321E+02
    79  2.83600E-05 -4.39608E+00 -4.39608E+00 -2.39238E-08  0.00000E+00  0.00000E+00  2.10317E+02
    80  2.91881E-05 -4.49746E+00 -4.49746E+00 -2.46509E-08  0.00000E+00  0.00000E+00  2.10313E+02
    81  3.00368E-05 -4.59910E+00 -4.59910E+00 -2.53986E-08  0.00000E+00  0.00000E+00  2.10308E+02
    82  3.09066E-05 -4.70085E+00 -4.70085E+00 -2.61676E-08  0.00000E+00  0.00000E+00  2.10304E+02
    83  3.17981E-05 -4.80254E+00 -4.80254E+00 -2.69587E-08  0.00000E+00  0.00000E+00  2.10299E+02
    84  3.27119E-05 -4.90400E+00 -4.90400E+00 -2.77725E-08  0.00000E+00  0.00000E+00  2.10294E+02
    85  3.36484E-05 -5.00505E+00 -5.00505E+00 -2.86098E-08  0.00000E+00  0.00000E+00  2.10289E+02
    86  3.46082E-05 -5.10550E+00 -5.10550E+00 -2.94715E-08  0.00000E+00  0.00000E+00  2.10283E+02
    87  3.55919E-05 -5.20513E+00 -5.20513E+00 -3.03585E-08  0.00000E+00  0.00000E+00  2.10277E+02
    88  3.66002E-05 -5.30373E+00 -5.30373E+00 -3.12715E-08  0.00000E+00  0.00000E+00  2.10271E+02
    89  3.76336E-05 -5.40108E+00 -5.40108E+00 -3.22114E-08  0.00000E+00  0.00000E+00  2.10265E+02
    90  3.86927E-05 -5.49695E+00 -5.49695E+00 -3.31793E-08  0.00000E+00  0.00000E+00  2.10258E+02
    91  3.97782E-05 -5.59109E+00 -5.59109E+00 -3.41760E-08  0.00000E+00  0.00000E+00  2.10251E+02
    92  4.08908E-05 -5.68328E+00 -5.68328E+00 -3.52025E-08  0.00000E+00  0.00000E+00  2.10244E+02
    93  4.20310E-05 -5.77327E+00 -5.77327E+00 -3.62599E-08  0.00000E+00  0.00000E+00  2.10236E+02
    94  4.31997E-05 -5.86081E+00 -5.86081E+00 -3.73491E-08  0.00000E+00  0.00000E+00  2.10228E+02
    95  4.43975E-05 -5.94568E+00 -5.94568E+00 -3.84712E-08  0.00000E+00  0.00000E+00  2.10220E+02
    96  4.56252E-05 -6.02766E+00 -6.02766E+00 -3.96273E-08  0.00000E+00  0.00000E+00  2.10211E+02
    97  4.68834E-05 -6.10652E+00 -6.10652E+00 -4.08185E-08  0.00000E+00  0.00000E+00  2.10202E+02
    98  4.81730E-05 -6.18207E+00 -6.18207E+00 -4.20457E-08  0.00000E+00  0.00000E+00  2.10193E+02
    99  4.94948E-05 -6.25414E+00 -6.25414E+00 -4.33102E-08  0.00000E+00  0.00000E+00  2.10183E+02
   100  5.08494E-05 -6.32258E+00 -6.32258E+00 -4.46129E-08  0.00000E+00  0.00000E+00  2.10173E+02
   101  5.22378E-05 -6.38726E+00 -6.38726E+00 -4.59549E-08  0.00000E+00  0.00000E+00  2.10163E+02
   102  5.36608E-05 -6.44808E+00 -6.44808E+00 -4.73373E-08  0.00000E+00  0.00000E+00  2.10152E+02
   103  5.51193E-05 -6.50500E+00 -6.50500E+00 -4.87612E-08  0.00000E+00  0.00000E+00  2.10141E+02
   104  5.66141E-05 -6.55799E+00 -6.55799E+00 -5.02275E-08  0.00000E+00  0.00000E+00  2.10129E+02
   105  5.81461E-05 -6.60705E+00 -6.60705E+00 -5.17373E-08  0.00000E+00  0.00000E+00  2.10117E+02
   106  5.97163E-05 -6.65223E+00 -6.65223E+00 -5.32916E-08  0.00000E+00  0.00000E+00  2.10105E+02
   107  6.13257E-05 -6.69362E+00 -6.69362E+00 -5.48913E-08  0.00000E+00  0.00000E+00  2.10092E+02
   108  6.29751E-05 -6.73131E+00 -6.73131E+00 -5.65375E-08  0.00000E+00  0.00000E+00  2.10079E+02
   109  6.46656E-05 -6.76545E+00 -6.76545E+00 -5.82310E-08  0.00000E+00  0.00000E+00  2.10065E+02
   110  6.63983E-05 -6.79620E+00 -6.79620E+00 -5.99728E-08  0.00000E+00  0.00000E+00  2.10051E+02
   111  6.81741E-05 -6.82374E+00 -6.82374E+00 -6.17638E-08  0.00000E+00  0.00000E+00  2.10037E+02
   112  6.99942E-05 -6.84826E+00 -6.84826E+00 -6.36050E-08  0.00000E+00  0.00000E+00  2.10022E+02
   113  7.18596E-05 -6.86997E+00 -6.86997E+00 -6.54974E-08  0.00000E+00  0.00000E+00  2.10007E+02
   114  7.37715E-05 -6.88909E+00 -6.88909E+00 -6.74418E-08  0.00000E+00  0.00000E+00  2.09992E+02
   115  7.57310E-05 -6.90583E+00 -6.90583E+00 -6.94393E-08  0.00000E+00  0.00000E+00  2.09976E+02
   116  7.77394E-05 -6.92040E+00 -6.92040E+00 -7.14909E-08  0.00000E+00  0.00000E+00  2.09960E+02
   117  7.97978E-05 -6.93301E+00 -6.93301E+00 -7.35975E-08  0.00000E+00  0.00000E+00  2.09944E+02
   118  8.19075E-05 -6.94386E+00 -6.94386E+00 -7.57604E-08  0.00000E+00  0.00000E+00  2.09928E+02
   119  8.40697E-05 -6.95314E+00 -6.95314E+00 -7.79805E-08  0.00000E+00  0.00000E+00  2.09911E+02
   120  8.62859E-05 -6.96103E+00 -6.96103E+00 -8.02590E-08  0.00000E+00  0.00000E+00  2.09894E+02
   121  8.85572E-05 -6.96771E+00 -6.96771E+00 -8.25972E-08  0.00000E+00  0.00000E+00  2.09876E+02
   122  9.08851E-05 -6.97331E+00 -6.97331E+00 -8.49961E-08  0.00000E+00  0.00000E+00  2.09858E+02
   123  9.32711E-05 -6.97799E+00 -6.97799E+00 -8.74572E-08  0.00000E+00  0.00000E+00  2.09840E+02
   124  9.57164E-05 -6.98188E+00 -6.98188E+00 -8.99817E-08  0.00000E+00  0.00000E+00  2.09822E+02
   125  9.82228E-05 -6.98508E+00 -6.98508E+00 -9.25711E-08  0.00000E+00  0.00000E+00  2.09803E+02
   126  1.00792E-04 -6.98770E+00 -6.98770E+00 -9.52267E-08  0.00000E+00  0.00000E+00  2.09784E+02
   127  1.03424E-04 -6.98983E+00 -6.98983E+00 -9.79500E-08  0.00000E+00  0.00000E+00  2.09765E+02
   128  1.06123E-04 -6.99154E+00 -6.99154E+00 -1.00743E-07  0.00000E+00  0.00000E+00  2.09745E+02
   129  1.08888E-04 -6.99291E+00 -6.99291E+00 -1.03606E-07  0.00000E+00  0.00000E+00  2.09726E+02
   130  1.11723E-04 -6.99400E+00 -6.99400E+00 -1.06542E-07  0.00000E+00  0.00000E+00  2.09705E+02
   131  1.14628E-04 -6.99485E+00 -6.99485E+00 -1.09552E-07  0.00000E+00  0.00000E+00  2.09685E+02
   132  1.17605E-04 -6.99551E+00 -6.99551E+00 -1.12638E-07  0.00000E+00  0.00000E+00  2.09664E+02
   133  1.20657E-04 -6.99601E+00 -6.99601E+00 -1.15802E-07  0.00000E+00  0.00000E+00  2.09643E+02
   134  1.23785E-04 -6.99639E+00 -6.99639E+00 -1.19046E-07  0.00000E+00  0.00000E+00  2.09622E+02
   135  1.26990E-04 -6.99667E+00 -6.99667E+00 -1.22371E-07  0.00000E+00  0.00000E+00  2.09600E+02
   136  1.30276E-04 -6.99687E+00 -6.99687E+00 -1.25779E-07  0.00000E+00  0.00000E+00  2.09579E+02
   137  1.33643E-04 -6.99700E+00 -6.99700E+00 -1.29273E-07  0.00000E+00  0.00000E+00  2.09556E+02
   138  1.37095E-04 -6.99709E+00 -6.99709E+00 -1.32854E-07  0.00000E+00  0.00000E+00  2.09534E+02
   139  1.40632E-04 -6.99713E+00 -6.99713E+00 -1.36525E-07  0.00000E+00  0.00000E+00  2.09511E+02
   140  1.44257E-04 -6.99715E+00 -6.99715E+00 -1.40288E-07  0.00000E+00  0.00000E+00  2.09488E+02
   141  1.47973E-04 -6.99714E+00 -6.99714E+00 -1.44145E-07  0.00000E+00  0.00000E+00  2.09465E+02
   142  1.51781E-04 -6.99711E+00 -6.99711E+00 -1.48098E-07  0.00000E+00  0.00000E+00  2.09441E+02
   143  1.55685E-04 -6.99707E+00 -6.99707E+00 -1.52150E-07  0.00000E+00  0.00000E+00  2.09417E+02
   144  1.59685E-04 -6.99702E+00 -6.99702E+00 -1.56303E-07  0.00000E+00  0.00000E+00  2.09392E+02
   145  1.63785E-04 -6.99696E+00 -6.99696E+00 -1.60559E-07  0.00000E+00  0.00000E+00  2.09368E+02
   146  1.67987E-04 -6.99690E+00 -6.99690E+00 -1.64922E-07  0.00000E+00  0.00000E+00  2.09343E+02
   147  1.72294E-04 -6.99683E+00 -6.99683E+00 -1.69393E-07  0.00000E+00  0.00000E+00  2.09317E+02
   148  1.76709E-04 -6.99675E+00 -6.99675E+00 -1.73976E-07  0.00000E+00  0.00000E+00  2.09292E+02
   149  1.81233E-04 -6.99667E+00 -6.99667E+00 -1.78673E-07  0.00000E+00  0.00000E+00  2.09265E+02
   150  1.85870E-04 -6.99659E+00 -6.99659E+00 -1.83486E-07  0.00000E+00  0.00000E+00  2.09239E+02
   151  1.90623E-04 -6.99651E+00 -6.99650E+00 -1.88419E-07  0.00000E+00  0.00000E+00  2.09212E+02
   152  1.95493E-04 -6.99642E+00 -6.99642E+00 -1.93475E-07  0.00000E+00  0.00000E+00  2.09185E+02
   153  2.00486E-04 -6.99633E+00 -6.99633E+00 -1.98656E-07  0.00000E+00  0.00000E+00  2.09157E+02
   154  2.05602E-04 -6.99623E+00 -6.99623E+00 -2.03966E-07  0.00000E+00  0.00000E+00  2.09130E+02
   155  2.10847E-04 -6.99614E+00 -6.99614E+00 -2.09408E-07  0.00000E+00  0.00000E+00  2.09101E+02
   156  2.16221E-04 -6.99604E+00 -6.99604E+00 -2.14985E-07  0.00000E+00  0.00000E+00  2.09072E+02
   157  2.21730E-04 -6.99594E+00 -6.99594E+00 -2.20700E-07  0.00000E+00  0.00000E+00  2.09043E+02
   158  2.27376E-04 -6.99583E+00 -6.99583E+00 -2.26557E-07  0.00000E+00  0.00000E+00  2.09014E+02
   159  2.33163E-04 -6.99573E+00 -6.99573E+00 -2.32559E-07  0.00000E+00  0.00000E+00  2.08984E+02
   160  2.39094E-04 -6.99562E+00 -6.99562E+00 -2.38710E-07  0.00000E+00  0.00000E+00  2.08953E+02
   161  2.45172E-04 -6.99551E+00 -6.99551E+00 -2.45013E-07  0.00000E+00  0.00000E+00  2.08922E+02
   162  2.51402E-04 -6.99539E+00 -6.99539E+00 -2.51473E-07  0.00000E+00  0.00000E+00  2.08891E+02
   163  2.57788E-04 -6.99528E+00 -6.99528E+00 -2.58092E-07  0.00000E+00  0.00000E+00  2.08859E+02
   164  2.64332E-04 -6.99516E+00 -6.99516E+00 -2.64875E-07  0.00000E+00  0.00000E+00  2.08827E+02
   165  2.71040E-04 -6.99503E+00 -6.99503E+00 -2.71826E-07  0.00000E+00  0.00000E+00  2.08794E+02
   166  2.77914E-04 -6.99491E+00 -6.99491E+00 -2.78948E-07  0.00000E+00  0.00000E+00  2.08761E+02
   167  2.84960E-04 -6.99478E+00 -6.99478E+00 -2.86247E-07  0.00000E+00  0.00000E+00  2.08727E+02
   168  2.92181E-04 -6.99465E+00 -6.99465E+00 -2.93726E-07  0.00000E+00  0.00000E+00  2.08693E+02
   169  2.99583E-04 -6.99451E+00 -6.99451E+00 -3.01389E-07  0.00000E+00  0.00000E+00  2.08658E+02
   170  3.07168E-04 -6.99437E+00 -6.99437E+00 -3.09242E-07  0.00000E+00  0.00000E+00  2.08623E+02
   171  3.14943E-04 -6.99423E+00 -6.99423E+00 -3.17289E-07  0.00000E+00  0.00000E+00  2.08587E+02
   172  3.22912E-04 -6.99408E+00 -6.99408E+00 -3.25535E-07  0.00000E+00  0.00000E+00  2.08550E+02
   173  3.31079E-04 -6.99394E+00 -6.99393E+00 -3.33983E-07  0.00000E+00  0.00000E+00  2.08513E+02
   174  3.39449E-04 -6.99378E+00 -6.99378E+00 -3.42640E-07  0.00000E+00  0.00000E+00  2.08476E+02
   175  3.48028E-04 -6.99362E+00 -6.99362E+00 -3.51511E-07  0.00000E+00  0.00000E+00  2.08437E+02
   176  3.56821E-04 -6.99346E+00 -6.99346E+00 -3.60600E-07  0.00000E+00  0.00000E+00  2.08398E+02
   177  3.65832E-04 -6.99330E+00 -6.99330E+00 -3.69913E-07  0.00000E+00  0.00000E+00  2.08359E+02
   178  3.75069E-04 -6.99313E+00 -6.99313E+00 -3.79455E-07  0.00000E+00  0.00000E+00  2.08319E+02
   179  3.84535E-04 -6.99296E+00 -6.99296E+00 -3.89233E-07  0.00000E+00  0.00000E+00  2.08278E+02
   180  3.94237E-04 -6.99278E+00 -6.99278E+00 -3.99251E-07  0.00000E+00  0.00000E+00  2.08236E+02
   181  4.04182E-04 -6.99260E+00 -6.99260E+00 -4.09515E-07  0.00000E+00  0.00000E+00  2.08194E+02
   182  4.14373E-04 -6.99241E+00 -6.99241E+00 -4.20032E-07  0.00000E+00  0.00000E+00  2.08151E+02
   183  4.24819E-04 -6.99222E+00 -6.99222E+00 -4.30807E-07  0.00000E+00  0.00000E+00  2.08107E+02
   184  4.35525E-04 -6.99202E+00 -6.99202E+00 -4.41847E-07  0.00000E+00  0.00000E+00  2.08063E+02
   185  4.46498E-04 -6.99182E+00 -6.99182E+00 -4.53158E-07  0.00000E+00  0.00000E+00  2.08018E+02
   186  4.57744E-04 -6.99161E+00 -6.99161E+00 -4.64748E-07  0.00000E+00  0.00000E+00  2.07972E+02
   187  4.69270E-04 -6.99140E+00 -6.99140E+00 -4.76621E-07  0.00000E+00  0.00000E+00  2.07925E+02
   188  4.81083E-04 -6.99119E+00 -6.99119E+00 -4.88786E-07  0.00000E+00  0.00000E+00  2.07877E+02
   189  4.93191E-04 -6.99097E+00 -6.99096E+00 -5.01249E-07  0.00000E+00  0.00000E+00  2.07829E+02
   190  5.05600E-04 -6.99074E+00 -6.99074E+00 -5.14018E-07  0.00000E+00  0.00000E+00  2.07779E+02
   191  5.18319E-04 -6.99051E+00 -6.99050E+00 -5.27100E-07  0.00000E+00  0.00000E+00  2.07729E+02
   192  5.31354E-04 -6.99027E+00 -6.99027E+00 -5.40502E-07  0.00000E+00  0.00000E+00  2.07678E+02
   193  5.44715E-04 -6.99002E+00 -6.99002E+00 -5.54232E-07  0.00000E+00  0.00000E+00  2.07626E+02
   194  5.58408E-04 -6.98977E+00 -6.98977E+00 -5.68298E-07  0.00000E+00  0.00000E+00  2.07573E+02
   195  5.72442E-04 -6.98951E+00 -6.98951E+00 -5.82709E-07  0.00000E+00  0.00000E+00  2.07519E+02
   196  5.86826E-04 -6.98925E+00 -6.98925E+00 -5.97472E-07  0.00000E+00  0.00000E+00  2.07464E+02
   197  6.01568E-04 -6.98898E+00 -6.98898E+00 -6.12596E-07  0.00000E+00  0.00000E+00  2.07407E+02
   198  6.16677E-04 -6.98870E+00 -6.98870E+00 -6.28089E-07  0.00000E+00  0.00000E+00  2.07350E+02
   199  6.32163E-04 -6.98842E+00 -6.98842E+00 -6.43961E-07  0.00000E+00  0.00000E+00  2.07292E+02
   200  6.48035E-04 -6.98813E+00 -6.98813E+00 -6.60220E-07  0.00000E+00  0.00000E+00  2.07233E+02
