 #  Scattering amplitudes (in cm)      MU=(1-cos(TH))/2
 #  Z =   8,   projectile: electron
 #  Kinetic energy = 3.70000E+06 eV
 #
 # TH (deg)      MU          Re(F)        Im(F)        Re(G)        Im(G)
 #--------------------------------------------------------------------------
  0.000E+00  0.00000E+00  1.63499E-07  4.70227E-09  0.00000E+00  0.00000E+00
  1.000E-04  7.61557E-13  1.63499E-07  4.70227E-09  1.25366E-13  3.60561E-15
  1.250E-04  1.18994E-12  1.63499E-07  4.70227E-09  1.56707E-13  4.50701E-15
  1.500E-04  1.71346E-12  1.63499E-07  4.70227E-09  1.88049E-13  5.40841E-15
  1.750E-04  2.33225E-12  1.63499E-07  4.70227E-09  2.19390E-13  6.30981E-15
  2.000E-04  3.04617E-12  1.63499E-07  4.70227E-09  2.50731E-13  7.21122E-15
  2.250E-04  3.85530E-12  1.63498E-07  4.70227E-09  2.82073E-13  8.11262E-15
  2.500E-04  4.75964E-12  1.63498E-07  4.70227E-09  3.13414E-13  9.01402E-15
  2.750E-04  5.75917E-12  1.63498E-07  4.70226E-09  3.44755E-13  9.91542E-15
  3.000E-04  6.85391E-12  1.63498E-07  4.70226E-09  3.76096E-13  1.08168E-14
  3.250E-04  8.04379E-12  1.63498E-07  4.70226E-09  4.07436E-13  1.17182E-14
  3.500E-04  9.32893E-12  1.63497E-07  4.70226E-09  4.38777E-13  1.26196E-14
  3.750E-04  1.07092E-11  1.63497E-07  4.70226E-09  4.70117E-13  1.35210E-14
  4.000E-04  1.21847E-11  1.63497E-07  4.70226E-09  5.01458E-13  1.44224E-14
  4.250E-04  1.37554E-11  1.63497E-07  4.70226E-09  5.32798E-13  1.53238E-14
  4.500E-04  1.54213E-11  1.63496E-07  4.70225E-09  5.64138E-13  1.62252E-14
  4.750E-04  1.71823E-11  1.63496E-07  4.70225E-09  5.95478E-13  1.71266E-14
  5.000E-04  1.90386E-11  1.63496E-07  4.70225E-09  6.26817E-13  1.80280E-14
  5.250E-04  2.09900E-11  1.63495E-07  4.70225E-09  6.58157E-13  1.89294E-14
  5.500E-04  2.30367E-11  1.63495E-07  4.70225E-09  6.89496E-13  1.98308E-14
  5.750E-04  2.51785E-11  1.63495E-07  4.70225E-09  7.20835E-13  2.07321E-14
  6.000E-04  2.74156E-11  1.63494E-07  4.70224E-09  7.52174E-13  2.16335E-14
  6.250E-04  2.97478E-11  1.63494E-07  4.70224E-09  7.83513E-13  2.25349E-14
  6.500E-04  3.21752E-11  1.63493E-07  4.70224E-09  8.14851E-13  2.34363E-14
  6.750E-04  3.46979E-11  1.63493E-07  4.70224E-09  8.46189E-13  2.43377E-14
  7.000E-04  3.73157E-11  1.63492E-07  4.70223E-09  8.77527E-13  2.52391E-14
  7.250E-04  4.00286E-11  1.63492E-07  4.70223E-09  9.08864E-13  2.61405E-14
  7.500E-04  4.28368E-11  1.63491E-07  4.70223E-09  9.40201E-13  2.70418E-14
  7.750E-04  4.57402E-11  1.63491E-07  4.70223E-09  9.71538E-13  2.79432E-14
  8.000E-04  4.87388E-11  1.63490E-07  4.70222E-09  1.00287E-12  2.88446E-14
  8.250E-04  5.18325E-11  1.63490E-07  4.70222E-09  1.03421E-12  2.97460E-14
  8.500E-04  5.50215E-11  1.63489E-07  4.70222E-09  1.06555E-12  3.06473E-14
  8.750E-04  5.83057E-11  1.63489E-07  4.70221E-09  1.09688E-12  3.15487E-14
  9.000E-04  6.16850E-11  1.63488E-07  4.70221E-09  1.12822E-12  3.24501E-14
  9.250E-04  6.51595E-11  1.63487E-07  4.70221E-09  1.15955E-12  3.33514E-14
  9.500E-04  6.87293E-11  1.63487E-07  4.70220E-09  1.19089E-12  3.42528E-14
  9.750E-04  7.23943E-11  1.63486E-07  4.70220E-09  1.22222E-12  3.51542E-14
  1.000E-03  7.61544E-11  1.63485E-07  4.70220E-09  1.25356E-12  3.60555E-14
  1.250E-03  1.18991E-10  1.63478E-07  4.70215E-09  1.56687E-12  4.50690E-14
  1.500E-03  1.71347E-10  1.63468E-07  4.70210E-09  1.88014E-12  5.40822E-14
  1.750E-03  2.33223E-10  1.63457E-07  4.70204E-09  2.19334E-12  6.30951E-14
  2.000E-03  3.04617E-10  1.63444E-07  4.70197E-09  2.50648E-12  7.21076E-14
  2.250E-03  3.85531E-10  1.63429E-07  4.70189E-09  2.81953E-12  8.11197E-14
  2.500E-03  4.75965E-10  1.63413E-07  4.70180E-09  3.13250E-12  9.01313E-14
  2.750E-03  5.75917E-10  1.63395E-07  4.70170E-09  3.44537E-12  9.91424E-14
  3.000E-03  6.85389E-10  1.63375E-07  4.70160E-09  3.75813E-12  1.08153E-13
  3.250E-03  8.04380E-10  1.63354E-07  4.70148E-09  4.07077E-12  1.17163E-13
  3.500E-03  9.32891E-10  1.63330E-07  4.70135E-09  4.38329E-12  1.26172E-13
  3.750E-03  1.07092E-09  1.63306E-07  4.70122E-09  4.69566E-12  1.35180E-13
  4.000E-03  1.21847E-09  1.63279E-07  4.70107E-09  5.00789E-12  1.44188E-13
  4.250E-03  1.37554E-09  1.63251E-07  4.70092E-09  5.31996E-12  1.53194E-13
  4.500E-03  1.54213E-09  1.63220E-07  4.70076E-09  5.63186E-12  1.62200E-13
  4.750E-03  1.71823E-09  1.63189E-07  4.70058E-09  5.94358E-12  1.71205E-13
  5.000E-03  1.90386E-09  1.63155E-07  4.70040E-09  6.25512E-12  1.80209E-13
  5.250E-03  2.09900E-09  1.63120E-07  4.70021E-09  6.56646E-12  1.89212E-13
  5.500E-03  2.30367E-09  1.63083E-07  4.70001E-09  6.87759E-12  1.98213E-13
  5.750E-03  2.51785E-09  1.63045E-07  4.69980E-09  7.18851E-12  2.07214E-13
  6.000E-03  2.74156E-09  1.63004E-07  4.69958E-09  7.49920E-12  2.16213E-13
  6.250E-03  2.97478E-09  1.62962E-07  4.69935E-09  7.80966E-12  2.25211E-13
  6.500E-03  3.21752E-09  1.62919E-07  4.69912E-09  8.11987E-12  2.34207E-13
  6.750E-03  3.46978E-09  1.62873E-07  4.69887E-09  8.42983E-12  2.43203E-13
  7.000E-03  3.73156E-09  1.62826E-07  4.69861E-09  8.73952E-12  2.52196E-13
  7.250E-03  4.00286E-09  1.62778E-07  4.69835E-09  9.04893E-12  2.61189E-13
  7.500E-03  4.28368E-09  1.62727E-07  4.69807E-09  9.35807E-12  2.70179E-13
  7.750E-03  4.57402E-09  1.62675E-07  4.69779E-09  9.66691E-12  2.79168E-13
  8.000E-03  4.87388E-09  1.62621E-07  4.69749E-09  9.97545E-12  2.88156E-13
  8.250E-03  5.18326E-09  1.62566E-07  4.69719E-09  1.02837E-11  2.97141E-13
  8.500E-03  5.50215E-09  1.62509E-07  4.69688E-09  1.05916E-11  3.06125E-13
  8.750E-03  5.83057E-09  1.62450E-07  4.69656E-09  1.08992E-11  3.15108E-13
  9.000E-03  6.16850E-09  1.62390E-07  4.69623E-09  1.12064E-11  3.24088E-13
  9.250E-03  6.51596E-09  1.62328E-07  4.69589E-09  1.15133E-11  3.33066E-13
  9.500E-03  6.87293E-09  1.62264E-07  4.69554E-09  1.18198E-11  3.42042E-13
  9.750E-03  7.23942E-09  1.62199E-07  4.69518E-09  1.21260E-11  3.51017E-13
  1.000E-02  7.61544E-09  1.62132E-07  4.69481E-09  1.24318E-11  3.59989E-13
  1.250E-02  1.18991E-08  1.61372E-07  4.69063E-09  1.54669E-11  4.49585E-13
  1.500E-02  1.71347E-08  1.60453E-07  4.68552E-09  1.84545E-11  5.38915E-13
  1.750E-02  2.33223E-08  1.59379E-07  4.67951E-09  2.13862E-11  6.27927E-13
  2.000E-02  3.04617E-08  1.58157E-07  4.67259E-09  2.42541E-11  7.16570E-13
  2.250E-02  3.85531E-08  1.56794E-07  4.66477E-09  2.70506E-11  8.04792E-13
  2.500E-02  4.75965E-08  1.55297E-07  4.65606E-09  2.97693E-11  8.92545E-13
  2.750E-02  5.75917E-08  1.53673E-07  4.64648E-09  3.24039E-11  9.79780E-13
  3.000E-02  6.85389E-08  1.51932E-07  4.63604E-09  3.49492E-11  1.06645E-12
  3.250E-02  8.04380E-08  1.50082E-07  4.62475E-09  3.74005E-11  1.15250E-12
  3.500E-02  9.32891E-08  1.48131E-07  4.61261E-09  3.97539E-11  1.23790E-12
  3.750E-02  1.07092E-07  1.46089E-07  4.59966E-09  4.20063E-11  1.32260E-12
  4.000E-02  1.21847E-07  1.43964E-07  4.58590E-09  4.41551E-11  1.40655E-12
  4.250E-02  1.37554E-07  1.41767E-07  4.57134E-09  4.61986E-11  1.48972E-12
  4.500E-02  1.54213E-07  1.39504E-07  4.55602E-09  4.81355E-11  1.57206E-12
  4.750E-02  1.71823E-07  1.37186E-07  4.53993E-09  4.99654E-11  1.65354E-12
  5.000E-02  1.90386E-07  1.34820E-07  4.52311E-09  5.16881E-11  1.73412E-12
  5.250E-02  2.09900E-07  1.32415E-07  4.50557E-09  5.33044E-11  1.81376E-12
  5.500E-02  2.30367E-07  1.29979E-07  4.48733E-09  5.48152E-11  1.89244E-12
  5.750E-02  2.51785E-07  1.27518E-07  4.46841E-09  5.62220E-11  1.97012E-12
  6.000E-02  2.74156E-07  1.25041E-07  4.44884E-09  5.75266E-11  2.04677E-12
  6.250E-02  2.97478E-07  1.22553E-07  4.42862E-09  5.87312E-11  2.12237E-12
  6.500E-02  3.21752E-07  1.20061E-07  4.40779E-09  5.98383E-11  2.19688E-12
  6.750E-02  3.46978E-07  1.17570E-07  4.38636E-09  6.08507E-11  2.27028E-12
  7.000E-02  3.73156E-07  1.15086E-07  4.36436E-09  6.17714E-11  2.34256E-12
  7.250E-02  4.00286E-07  1.12614E-07  4.34181E-09  6.26034E-11  2.41369E-12
  7.500E-02  4.28368E-07  1.10159E-07  4.31873E-09  6.33500E-11  2.48364E-12
  7.750E-02  4.57402E-07  1.07724E-07  4.29515E-09  6.40145E-11  2.55242E-12
  8.000E-02  4.87388E-07  1.05312E-07  4.27108E-09  6.46005E-11  2.61999E-12
  8.250E-02  5.18325E-07  1.02929E-07  4.24655E-09  6.51113E-11  2.68634E-12
  8.500E-02  5.50215E-07  1.00575E-07  4.22158E-09  6.55505E-11  2.75147E-12
  8.750E-02  5.83057E-07  9.82545E-08  4.19619E-09  6.59215E-11  2.81537E-12
  9.000E-02  6.16850E-07  9.59690E-08  4.17040E-09  6.62277E-11  2.87801E-12
  9.250E-02  6.51596E-07  9.37206E-08  4.14425E-09  6.64726E-11  2.93941E-12
  9.500E-02  6.87293E-07  9.15109E-08  4.11774E-09  6.66596E-11  2.99954E-12
  9.750E-02  7.23942E-07  8.93414E-08  4.09091E-09  6.67919E-11  3.05842E-12
  1.000E-01  7.61543E-07  8.72131E-08  4.06377E-09  6.68726E-11  3.11602E-12
  1.250E-01  1.18991E-06  6.83174E-08  3.77990E-09  6.54800E-11  3.62295E-12
  1.500E-01  1.71347E-06  5.36343E-08  3.48612E-09  6.16882E-11  4.00965E-12
  1.750E-01  2.33223E-06  4.25040E-08  3.19695E-09  5.70344E-11  4.28991E-12
  2.000E-01  3.04617E-06  3.41247E-08  2.92218E-09  5.23322E-11  4.48138E-12
  2.250E-01  3.85531E-06  2.77972E-08  2.66748E-09  4.79573E-11  4.60214E-12
  2.500E-01  4.75964E-06  2.29781E-08  2.43541E-09  4.40479E-11  4.66863E-12
  2.750E-01  5.75916E-06  1.92651E-08  2.22640E-09  4.06235E-11  4.69476E-12
  3.000E-01  6.85388E-06  1.63669E-08  2.03952E-09  3.76497E-11  4.69169E-12
  3.250E-01  8.04378E-06  1.40736E-08  1.87314E-09  3.50722E-11  4.66803E-12
  3.500E-01  9.32888E-06  1.22342E-08  1.72526E-09  3.28337E-11  4.63024E-12
  3.750E-01  1.07092E-05  1.07393E-08  1.59384E-09  3.08807E-11  4.58308E-12
  4.000E-01  1.21846E-05  9.50925E-09  1.47690E-09  2.91666E-11  4.52995E-12
  4.250E-01  1.37553E-05  8.48509E-09  1.37262E-09  2.76519E-11  4.47326E-12
  4.500E-01  1.54212E-05  7.62307E-09  1.27938E-09  2.63041E-11  4.41469E-12
  4.750E-01  1.71822E-05  6.89025E-09  1.19576E-09  2.50964E-11  4.35537E-12
  5.000E-01  1.90385E-05  6.26153E-09  1.12050E-09  2.40068E-11  4.29607E-12
  5.250E-01  2.09899E-05  5.71762E-09  1.05254E-09  2.30176E-11  4.23729E-12
  5.500E-01  2.30365E-05  5.24350E-09  9.90959E-10  2.21142E-11  4.17936E-12
  5.750E-01  2.51783E-05  4.82737E-09  9.34966E-10  2.12846E-11  4.12246E-12
  6.000E-01  2.74153E-05  4.45984E-09  8.83886E-10  2.05192E-11  4.06669E-12
  6.250E-01  2.97475E-05  4.13340E-09  8.37142E-10  1.98097E-11  4.01212E-12
  6.500E-01  3.21749E-05  3.84195E-09  7.94237E-10  1.91495E-11  3.95877E-12
  6.750E-01  3.46974E-05  3.58052E-09  7.54743E-10  1.85329E-11  3.90661E-12
  7.000E-01  3.73152E-05  3.34501E-09  7.18291E-10  1.79552E-11  3.85565E-12
  7.250E-01  4.00281E-05  3.13203E-09  6.84561E-10  1.74124E-11  3.80584E-12
  7.500E-01  4.28362E-05  2.93871E-09  6.53276E-10  1.69011E-11  3.75716E-12
  7.750E-01  4.57395E-05  2.76268E-09  6.24194E-10  1.64184E-11  3.70957E-12
  8.000E-01  4.87380E-05  2.60188E-09  5.97103E-10  1.59616E-11  3.66305E-12
  8.250E-01  5.18317E-05  2.45459E-09  5.71816E-10  1.55287E-11  3.61756E-12
  8.500E-01  5.50205E-05  2.31932E-09  5.48171E-10  1.51176E-11  3.57307E-12
  8.750E-01  5.83045E-05  2.19478E-09  5.26022E-10  1.47266E-11  3.52955E-12
  9.000E-01  6.16838E-05  2.07986E-09  5.05240E-10  1.43543E-11  3.48698E-12
  9.250E-01  6.51582E-05  1.97360E-09  4.85710E-10  1.39993E-11  3.44532E-12
  9.500E-01  6.87277E-05  1.87514E-09  4.67331E-10  1.36604E-11  3.40456E-12
  9.750E-01  7.23925E-05  1.78373E-09  4.50011E-10  1.33365E-11  3.36466E-12
  1.000E+00  7.61524E-05  1.69872E-09  4.33668E-10  1.30266E-11  3.32561E-12
  1.100E+00  9.21439E-05  1.41198E-09  3.76675E-10  1.19107E-11  3.17746E-12
  1.200E+00  1.09658E-04  1.19100E-09  3.30476E-10  1.09602E-11  3.04122E-12
  1.300E+00  1.28695E-04  1.01727E-09  2.92467E-10  1.01416E-11  2.91577E-12
  1.400E+00  1.49255E-04  8.78333E-10  2.60796E-10  9.43025E-12  2.80005E-12
  1.500E+00  1.71338E-04  7.65585E-10  2.34113E-10  8.80698E-12  2.69315E-12
  1.600E+00  1.94942E-04  6.72902E-10  2.11413E-10  8.25698E-12  2.59419E-12
  1.700E+00  2.20070E-04  5.95840E-10  1.91934E-10  7.76846E-12  2.50241E-12
  1.800E+00  2.46720E-04  5.31113E-10  1.75090E-10  7.33200E-12  2.41711E-12
  1.900E+00  2.74892E-04  4.76247E-10  1.60421E-10  6.93995E-12  2.33768E-12
  2.000E+00  3.04586E-04  4.29355E-10  1.47566E-10  6.58604E-12  2.26356E-12
  2.100E+00  3.35803E-04  3.88977E-10  1.36234E-10  6.26512E-12  2.19426E-12
  2.200E+00  3.68542E-04  3.53971E-10  1.26191E-10  5.97288E-12  2.12933E-12
  2.300E+00  4.02802E-04  3.23432E-10  1.17248E-10  5.70574E-12  2.06838E-12
  2.400E+00  4.38585E-04  2.96636E-10  1.09248E-10  5.46065E-12  2.01108E-12
  2.500E+00  4.75889E-04  2.73001E-10  1.02061E-10  5.23506E-12  1.95709E-12
  2.600E+00  5.14715E-04  2.52052E-10  9.55793E-11  5.02677E-12  1.90615E-12
  2.700E+00  5.55063E-04  2.33399E-10  8.97129E-11  4.83389E-12  1.85800E-12
  2.800E+00  5.96931E-04  2.16721E-10  8.43852E-11  4.65481E-12  1.81242E-12
  2.900E+00  6.40321E-04  2.01750E-10  7.95314E-11  4.48811E-12  1.76921E-12
  3.000E+00  6.85233E-04  1.88263E-10  7.50963E-11  4.33257E-12  1.72819E-12
  3.100E+00  7.31665E-04  1.76070E-10  7.10324E-11  4.18713E-12  1.68918E-12
  3.200E+00  7.79618E-04  1.65012E-10  6.72990E-11  4.05084E-12  1.65206E-12
  3.300E+00  8.29092E-04  1.54954E-10  6.38606E-11  3.92289E-12  1.61667E-12
  3.400E+00  8.80086E-04  1.45779E-10  6.06865E-11  3.80252E-12  1.58290E-12
  3.500E+00  9.32601E-04  1.37387E-10  5.77501E-11  3.68911E-12  1.55064E-12
  3.600E+00  9.86636E-04  1.29692E-10  5.50277E-11  3.58207E-12  1.51979E-12
  3.700E+00  1.04219E-03  1.22620E-10  5.24989E-11  3.48088E-12  1.49026E-12
  3.800E+00  1.09927E-03  1.16104E-10  5.01454E-11  3.38508E-12  1.46195E-12
  3.900E+00  1.15786E-03  1.10089E-10  4.79512E-11  3.29425E-12  1.43480E-12
  4.000E+00  1.21797E-03  1.04525E-10  4.59020E-11  3.20803E-12  1.40873E-12
  4.100E+00  1.27961E-03  9.93683E-11  4.39852E-11  3.12608E-12  1.38368E-12
  4.200E+00  1.34276E-03  9.45798E-11  4.21893E-11  3.04808E-12  1.35959E-12
  4.300E+00  1.40743E-03  9.01257E-11  4.05044E-11  2.97376E-12  1.33639E-12
  4.400E+00  1.47362E-03  8.59757E-11  3.89212E-11  2.90288E-12  1.31405E-12
  4.500E+00  1.54133E-03  8.21029E-11  3.74317E-11  2.83519E-12  1.29252E-12
  4.600E+00  1.61056E-03  7.84833E-11  3.60285E-11  2.77050E-12  1.27174E-12
  4.700E+00  1.68131E-03  7.50953E-11  3.47050E-11  2.70860E-12  1.25168E-12
  4.800E+00  1.75357E-03  7.19197E-11  3.34552E-11  2.64932E-12  1.23230E-12
  4.900E+00  1.82735E-03  6.89392E-11  3.22735E-11  2.59250E-12  1.21357E-12
  5.000E+00  1.90265E-03  6.61383E-11  3.11551E-11  2.53800E-12  1.19546E-12
  5.100E+00  1.97947E-03  6.35028E-11  3.00955E-11  2.48567E-12  1.17792E-12
  5.200E+00  2.05780E-03  6.10200E-11  2.90905E-11  2.43539E-12  1.16094E-12
  5.300E+00  2.13765E-03  5.86784E-11  2.81365E-11  2.38704E-12  1.14449E-12
  5.400E+00  2.21902E-03  5.64676E-11  2.72299E-11  2.34051E-12  1.12854E-12
  5.500E+00  2.30190E-03  5.43781E-11  2.63676E-11  2.29571E-12  1.11306E-12
  5.600E+00  2.38630E-03  5.24011E-11  2.55468E-11  2.25253E-12  1.09805E-12
  5.700E+00  2.47222E-03  5.05288E-11  2.47647E-11  2.21090E-12  1.08347E-12
  5.800E+00  2.55965E-03  4.87540E-11  2.40190E-11  2.17073E-12  1.06931E-12
  5.900E+00  2.64859E-03  4.70699E-11  2.33074E-11  2.13195E-12  1.05555E-12
  6.000E+00  2.73905E-03  4.54707E-11  2.26278E-11  2.09448E-12  1.04217E-12
  6.100E+00  2.83103E-03  4.39507E-11  2.19783E-11  2.05827E-12  1.02915E-12
  6.200E+00  2.92452E-03  4.25047E-11  2.13571E-11  2.02325E-12  1.01649E-12
  6.300E+00  3.01952E-03  4.11281E-11  2.07626E-11  1.98936E-12  1.00416E-12
  6.400E+00  3.11604E-03  3.98166E-11  2.01933E-11  1.95655E-12  9.92151E-13
  6.500E+00  3.21407E-03  3.85660E-11  1.96476E-11  1.92478E-12  9.80453E-13
  6.600E+00  3.31362E-03  3.73728E-11  1.91244E-11  1.89398E-12  9.69052E-13
  6.700E+00  3.41468E-03  3.62334E-11  1.86223E-11  1.86412E-12  9.57936E-13
  6.800E+00  3.51725E-03  3.51447E-11  1.81403E-11  1.83516E-12  9.47095E-13
  6.900E+00  3.62133E-03  3.41038E-11  1.76772E-11  1.80705E-12  9.36519E-13
  7.000E+00  3.72692E-03  3.31079E-11  1.72321E-11  1.77977E-12  9.26196E-13
  7.100E+00  3.83403E-03  3.21544E-11  1.68041E-11  1.75326E-12  9.16118E-13
  7.200E+00  3.94265E-03  3.12410E-11  1.63922E-11  1.72751E-12  9.06276E-13
  7.300E+00  4.05278E-03  3.03656E-11  1.59956E-11  1.70248E-12  8.96662E-13
  7.400E+00  4.16442E-03  2.95259E-11  1.56136E-11  1.67814E-12  8.87267E-13
  7.500E+00  4.27757E-03  2.87202E-11  1.52455E-11  1.65446E-12  8.78083E-13
  7.600E+00  4.39223E-03  2.79466E-11  1.48906E-11  1.63142E-12  8.69104E-13
  7.700E+00  4.50840E-03  2.72034E-11  1.45483E-11  1.60899E-12  8.60323E-13
  7.800E+00  4.62608E-03  2.64891E-11  1.42179E-11  1.58715E-12  8.51732E-13
  7.900E+00  4.74527E-03  2.58022E-11  1.38989E-11  1.56587E-12  8.43325E-13
  8.000E+00  4.86597E-03  2.51414E-11  1.35908E-11  1.54514E-12  8.35097E-13
  8.100E+00  4.98817E-03  2.45053E-11  1.32931E-11  1.52492E-12  8.27041E-13
  8.200E+00  5.11188E-03  2.38927E-11  1.30053E-11  1.50522E-12  8.19152E-13
  8.300E+00  5.23711E-03  2.33025E-11  1.27270E-11  1.48599E-12  8.11424E-13
  8.400E+00  5.36383E-03  2.27336E-11  1.24577E-11  1.46724E-12  8.03853E-13
  8.500E+00  5.49207E-03  2.21850E-11  1.21971E-11  1.44893E-12  7.96434E-13
  8.600E+00  5.62181E-03  2.16557E-11  1.19448E-11  1.43106E-12  7.89161E-13
  8.700E+00  5.75306E-03  2.11450E-11  1.17004E-11  1.41361E-12  7.82031E-13
  8.800E+00  5.88581E-03  2.06518E-11  1.14637E-11  1.39657E-12  7.75039E-13
  8.900E+00  6.02007E-03  2.01755E-11  1.12342E-11  1.37991E-12  7.68182E-13
  9.000E+00  6.15583E-03  1.97152E-11  1.10117E-11  1.36364E-12  7.61454E-13
  9.100E+00  6.29310E-03  1.92703E-11  1.07958E-11  1.34773E-12  7.54852E-13
  9.200E+00  6.43187E-03  1.88400E-11  1.05865E-11  1.33217E-12  7.48373E-13
  9.300E+00  6.57214E-03  1.84238E-11  1.03833E-11  1.31696E-12  7.42014E-13
  9.400E+00  6.71392E-03  1.80211E-11  1.01860E-11  1.30207E-12  7.35769E-13
  9.500E+00  6.85720E-03  1.76312E-11  9.99440E-12  1.28751E-12  7.29638E-13
  9.600E+00  7.00198E-03  1.72537E-11  9.80829E-12  1.27326E-12  7.23616E-13
  9.700E+00  7.14827E-03  1.68880E-11  9.62746E-12  1.25930E-12  7.17700E-13
  9.800E+00  7.29605E-03  1.65336E-11  9.45169E-12  1.24564E-12  7.11887E-13
  9.900E+00  7.44534E-03  1.61901E-11  9.28079E-12  1.23226E-12  7.06176E-13
  1.000E+01  7.59612E-03  1.58570E-11  9.11460E-12  1.21916E-12  7.00562E-13
  1.025E+01  7.97965E-03  1.50674E-11  8.71853E-12  1.18754E-12  6.86939E-13
  1.050E+01  8.37255E-03  1.43344E-11  8.34826E-12  1.15746E-12  6.73875E-13
  1.075E+01  8.77480E-03  1.36530E-11  8.00156E-12  1.12880E-12  6.61334E-13
  1.100E+01  9.18641E-03  1.30182E-11  7.67644E-12  1.10148E-12  6.49284E-13
  1.125E+01  9.60736E-03  1.24261E-11  7.37113E-12  1.07541E-12  6.37697E-13
  1.150E+01  1.00376E-02  1.18729E-11  7.08403E-12  1.05049E-12  6.26545E-13
  1.175E+01  1.04773E-02  1.13552E-11  6.81370E-12  1.02665E-12  6.15803E-13
  1.200E+01  1.09262E-02  1.08702E-11  6.55883E-12  1.00383E-12  6.05448E-13
  1.225E+01  1.13844E-02  1.04151E-11  6.31826E-12  9.81968E-13  5.95458E-13
  1.250E+01  1.18520E-02  9.98750E-12  6.09093E-12  9.60996E-13  5.85815E-13
  1.275E+01  1.23288E-02  9.58530E-12  5.87586E-12  9.40865E-13  5.76499E-13
  1.300E+01  1.28150E-02  9.20652E-12  5.67218E-12  9.21526E-13  5.67494E-13
  1.325E+01  1.33104E-02  8.84938E-12  5.47908E-12  9.02933E-13  5.58784E-13
  1.350E+01  1.38150E-02  8.51227E-12  5.29584E-12  8.85045E-13  5.50353E-13
  1.375E+01  1.43290E-02  8.19373E-12  5.12178E-12  8.67822E-13  5.42189E-13
  1.400E+01  1.48521E-02  7.89243E-12  4.95630E-12  8.51228E-13  5.34278E-13
  1.425E+01  1.53845E-02  7.60715E-12  4.79884E-12  8.35230E-13  5.26608E-13
  1.450E+01  1.59262E-02  7.33678E-12  4.64887E-12  8.19796E-13  5.19168E-13
  1.475E+01  1.64770E-02  7.08031E-12  4.50592E-12  8.04897E-13  5.11947E-13
  1.500E+01  1.70371E-02  6.83681E-12  4.36956E-12  7.90506E-13  5.04936E-13
