 #
 # Subroutine ELSEPA. Elastic scattering of electrons and positrons
 #                    by neutral atoms and positive ions
 #
 # Projectile: electron
 # Kinetic energy = 3.70000E+06 eV = 1.35973E+05 a.u.
 #
 # Element:  C,  Z =   6,  atomic weight = 1.20107E+01 g/mol
 #
 # Nuclear model: Fermi distribution
 #                Average radius = 2.45042E-13 cm
 #                Skin thickness = 5.46000E-14 cm
 #
 # Number of electrons =  6
 #
 # Electron density: Read from file z_006.den   
 #                   Number of data points =  725
 #                   Volume integral = 6.00000E+00
 #
 # Furness-McCarthy exchange potential
 #
 # Total elastic cross section = 2.45215E-19 cm**2 = 8.75678E-03 a0**2
 # 1st transport cross section = 3.25980E-24 cm**2 = 1.16410E-07 a0**2
 # 2nd transport cross section = 9.34538E-24 cm**2 = 3.33730E-07 a0**2
 #
 #
 # Differential cross section:                       MU=(1-COS(THETA))/2
 #
 #  THETA        MU          DCS          DCS        Sherman      error
 #  (deg)                 (cm**2/sr)   (a0**2/sr)    function
 #----------------------------------------------------------------------
  0.000E+00  0.00000E+00  4.16467E-14  1.48723E+03  0.00000E+00  1.0E-07
  1.000E-04  7.61557E-13  4.16466E-14  1.48723E+03  0.00000E+00  1.0E-07
  1.250E-04  1.18994E-12  4.16465E-14  1.48722E+03  0.00000E+00  1.0E-07
  1.500E-04  1.71346E-12  4.16464E-14  1.48722E+03  0.00000E+00  1.0E-07
  1.750E-04  2.33225E-12  4.16463E-14  1.48722E+03  0.00000E+00  1.0E-07
  2.000E-04  3.04617E-12  4.16462E-14  1.48721E+03  0.00000E+00  1.0E-07
  2.250E-04  3.85530E-12  4.16461E-14  1.48721E+03  0.00000E+00  1.0E-07
  2.500E-04  4.75964E-12  4.16459E-14  1.48720E+03  0.00000E+00  1.0E-07
  2.750E-04  5.75917E-12  4.16458E-14  1.48720E+03  0.00000E+00  1.0E-07
  3.000E-04  6.85391E-12  4.16456E-14  1.48719E+03  0.00000E+00  1.0E-07
  3.250E-04  8.04379E-12  4.16454E-14  1.48718E+03  0.00000E+00  1.0E-07
  3.500E-04  9.32893E-12  4.16452E-14  1.48718E+03  0.00000E+00  1.0E-07
  3.750E-04  1.07092E-11  4.16450E-14  1.48717E+03  0.00000E+00  1.0E-07
  4.000E-04  1.21847E-11  4.16447E-14  1.48716E+03  0.00000E+00  1.0E-07
  4.250E-04  1.37554E-11  4.16445E-14  1.48715E+03  0.00000E+00  1.0E-07
  4.500E-04  1.54213E-11  4.16442E-14  1.48714E+03  0.00000E+00  1.0E-07
  4.750E-04  1.71823E-11  4.16440E-14  1.48713E+03  0.00000E+00  1.0E-07
  5.000E-04  1.90386E-11  4.16437E-14  1.48712E+03  0.00000E+00  1.0E-07
  5.250E-04  2.09900E-11  4.16434E-14  1.48711E+03  0.00000E+00  1.0E-07
  5.500E-04  2.30367E-11  4.16430E-14  1.48710E+03  0.00000E+00  1.0E-07
  5.750E-04  2.51785E-11  4.16427E-14  1.48709E+03  0.00000E+00  1.0E-07
  6.000E-04  2.74156E-11  4.16423E-14  1.48707E+03  0.00000E+00  1.0E-07
  6.250E-04  2.97478E-11  4.16420E-14  1.48706E+03  0.00000E+00  1.0E-07
  6.500E-04  3.21752E-11  4.16416E-14  1.48705E+03  0.00000E+00  1.0E-07
  6.750E-04  3.46979E-11  4.16412E-14  1.48703E+03  0.00000E+00  1.0E-07
  7.000E-04  3.73157E-11  4.16408E-14  1.48702E+03  0.00000E+00  1.0E-07
  7.250E-04  4.00286E-11  4.16403E-14  1.48700E+03  0.00000E+00  1.0E-07
  7.500E-04  4.28368E-11  4.16399E-14  1.48699E+03  0.00000E+00  1.0E-07
  7.750E-04  4.57402E-11  4.16394E-14  1.48697E+03  0.00000E+00  1.0E-07
  8.000E-04  4.87388E-11  4.16390E-14  1.48695E+03  0.00000E+00  1.0E-07
  8.250E-04  5.18325E-11  4.16385E-14  1.48694E+03  0.00000E+00  1.0E-07
  8.500E-04  5.50215E-11  4.16380E-14  1.48692E+03  0.00000E+00  1.0E-07
  8.750E-04  5.83057E-11  4.16374E-14  1.48690E+03  0.00000E+00  1.0E-07
  9.000E-04  6.16850E-11  4.16369E-14  1.48688E+03  0.00000E+00  1.0E-07
  9.250E-04  6.51595E-11  4.16364E-14  1.48686E+03  0.00000E+00  1.0E-07
  9.500E-04  6.87293E-11  4.16358E-14  1.48684E+03  0.00000E+00  1.0E-07
  9.750E-04  7.23943E-11  4.16352E-14  1.48682E+03  0.00000E+00  1.0E-07
  1.000E-03  7.61544E-11  4.16346E-14  1.48680E+03  0.00000E+00  1.0E-07
  1.250E-03  1.18991E-10  4.16278E-14  1.48656E+03  0.00000E+00  1.0E-07
  1.500E-03  1.71347E-10  4.16195E-14  1.48626E+03  0.00000E+00  1.0E-07
  1.750E-03  2.33223E-10  4.16097E-14  1.48591E+03  0.00000E+00  1.0E-07
  2.000E-03  3.04617E-10  4.15985E-14  1.48551E+03  0.00000E+00  1.0E-07
  2.250E-03  3.85531E-10  4.15857E-14  1.48505E+03  0.00000E+00  1.0E-07
  2.500E-03  4.75965E-10  4.15714E-14  1.48454E+03  0.00000E+00  1.0E-07
  2.750E-03  5.75917E-10  4.15556E-14  1.48398E+03  0.00000E+00  1.0E-07
  3.000E-03  6.85389E-10  4.15383E-14  1.48336E+03  0.00000E+00  1.0E-07
  3.250E-03  8.04380E-10  4.15195E-14  1.48269E+03  0.00000E+00  1.0E-07
  3.500E-03  9.32891E-10  4.14992E-14  1.48196E+03  0.00000E+00  1.0E-07
  3.750E-03  1.07092E-09  4.14775E-14  1.48119E+03  0.00000E+00  1.0E-07
  4.000E-03  1.21847E-09  4.14543E-14  1.48036E+03  0.00000E+00  1.0E-07
  4.250E-03  1.37554E-09  4.14295E-14  1.47948E+03  0.00000E+00  1.0E-07
  4.500E-03  1.54213E-09  4.14034E-14  1.47854E+03  0.00000E+00  1.0E-07
  4.750E-03  1.71823E-09  4.13757E-14  1.47755E+03  0.00000E+00  1.0E-07
  5.000E-03  1.90386E-09  4.13466E-14  1.47651E+03  0.00000E+00  1.0E-07
  5.250E-03  2.09900E-09  4.13160E-14  1.47542E+03  0.00000E+00  1.0E-07
  5.500E-03  2.30367E-09  4.12839E-14  1.47428E+03  0.00000E+00  1.0E-07
  5.750E-03  2.51785E-09  4.12504E-14  1.47308E+03  0.00000E+00  1.0E-07
  6.000E-03  2.74156E-09  4.12155E-14  1.47183E+03  0.00000E+00  1.0E-07
  6.250E-03  2.97478E-09  4.11791E-14  1.47053E+03  0.00000E+00  1.0E-07
  6.500E-03  3.21752E-09  4.11413E-14  1.46918E+03  0.00000E+00  1.0E-07
  6.750E-03  3.46978E-09  4.11020E-14  1.46778E+03  0.00000E+00  1.0E-07
  7.000E-03  3.73156E-09  4.10613E-14  1.46633E+03  0.00000E+00  1.0E-07
  7.250E-03  4.00286E-09  4.10192E-14  1.46482E+03  0.00000E+00  1.0E-07
  7.500E-03  4.28368E-09  4.09757E-14  1.46327E+03  0.00000E+00  1.0E-07
  7.750E-03  4.57402E-09  4.09308E-14  1.46167E+03  0.00000E+00  1.0E-07
  8.000E-03  4.87388E-09  4.08845E-14  1.46001E+03  0.00000E+00  1.0E-07
  8.250E-03  5.18326E-09  4.08368E-14  1.45831E+03  0.00000E+00  1.0E-07
  8.500E-03  5.50215E-09  4.07877E-14  1.45655E+03  0.00000E+00  1.0E-07
  8.750E-03  5.83057E-09  4.07372E-14  1.45475E+03  0.00000E+00  1.0E-07
  9.000E-03  6.16850E-09  4.06853E-14  1.45290E+03  0.00000E+00  1.0E-07
  9.250E-03  6.51596E-09  4.06321E-14  1.45100E+03  0.00000E+00  1.0E-07
  9.500E-03  6.87293E-09  4.05776E-14  1.44905E+03  0.00000E+00  1.0E-07
  9.750E-03  7.23942E-09  4.05217E-14  1.44705E+03  0.00000E+00  1.0E-07
  1.000E-02  7.61544E-09  4.04644E-14  1.44501E+03  0.00000E+00  1.0E-07
  1.250E-02  1.18991E-08  3.98202E-14  1.42201E+03  0.00000E+00  1.0E-07
  1.500E-02  1.71347E-08  3.90524E-14  1.39459E+03  0.00000E+00  1.0E-07
  1.750E-02  2.33223E-08  3.81718E-14  1.36314E+03  0.00000E+00  1.0E-07
  2.000E-02  3.04617E-08  3.71902E-14  1.32809E+03  0.00000E+00  1.0E-07
  2.250E-02  3.85531E-08  3.61205E-14  1.28989E+03  0.00000E+00  1.0E-07
  2.500E-02  4.75965E-08  3.49758E-14  1.24901E+03  0.00000E+00  1.0E-07
  2.750E-02  5.75917E-08  3.37694E-14  1.20593E+03  0.00000E+00  1.0E-07
  3.000E-02  6.85389E-08  3.25146E-14  1.16112E+03  0.00000E+00  1.0E-07
  3.250E-02  8.04380E-08  3.12243E-14  1.11504E+03  0.00000E+00  1.0E-07
  3.500E-02  9.32891E-08  2.99106E-14  1.06813E+03  0.00000E+00  1.0E-07
  3.750E-02  1.07092E-07  2.85849E-14  1.02079E+03  0.00000E+00  1.0E-07
  4.000E-02  1.21847E-07  2.72579E-14  9.73398E+02  0.00000E+00  1.0E-07
  4.250E-02  1.37554E-07  2.59389E-14  9.26297E+02  0.00000E+00  1.0E-07
  4.500E-02  1.54213E-07  2.46365E-14  8.79784E+02  0.00000E+00  1.0E-07
  4.750E-02  1.71823E-07  2.33577E-14  8.34120E+02  0.00000E+00  1.0E-07
  5.000E-02  1.90386E-07  2.21090E-14  7.89528E+02  0.00000E+00  1.0E-07
  5.250E-02  2.09900E-07  2.08955E-14  7.46194E+02  0.00000E+00  1.0E-07
  5.500E-02  2.30367E-07  1.97214E-14  7.04265E+02  0.00000E+00  1.0E-07
  5.750E-02  2.51785E-07  1.85900E-14  6.63860E+02  0.00000E+00  1.0E-07
  6.000E-02  2.74156E-07  1.75036E-14  6.25065E+02  0.00000E+00  1.0E-07
  6.250E-02  2.97478E-07  1.64640E-14  5.87940E+02  0.00000E+00  1.0E-07
  6.500E-02  3.21752E-07  1.54721E-14  5.52519E+02  0.00000E+00  1.0E-07
  6.750E-02  3.46978E-07  1.45284E-14  5.18818E+02  0.00000E+00  1.0E-07
  7.000E-02  3.73156E-07  1.36327E-14  4.86832E+02  0.00000E+00  1.0E-07
  7.250E-02  4.00286E-07  1.27845E-14  4.56544E+02  0.00000E+00  1.0E-07
  7.500E-02  4.28368E-07  1.19830E-14  4.27921E+02  0.00000E+00  1.0E-07
  7.750E-02  4.57402E-07  1.12269E-14  4.00921E+02  0.00000E+00  1.0E-07
  8.000E-02  4.87388E-07  1.05149E-14  3.75495E+02  0.00000E+00  1.0E-07
  8.250E-02  5.18325E-07  9.84545E-15  3.51587E+02  0.00000E+00  1.0E-07
  8.500E-02  5.50215E-07  9.21675E-15  3.29136E+02  0.00000E+00  1.0E-07
  8.750E-02  5.83057E-07  8.62707E-15  3.08078E+02  0.00000E+00  1.0E-07
  9.000E-02  6.16850E-07  8.07455E-15  2.88347E+02  0.00000E+00  1.0E-07
  9.250E-02  6.51596E-07  7.55733E-15  2.69877E+02  0.00000E+00  1.0E-07
  9.500E-02  6.87293E-07  7.07355E-15  2.52601E+02  0.00000E+00  1.0E-07
  9.750E-02  7.23942E-07  6.62137E-15  2.36453E+02  0.00000E+00  1.0E-07
  1.000E-01  7.61543E-07  6.19896E-15  2.21369E+02  0.00000E+00  1.0E-07
  1.250E-01  1.18991E-06  3.25794E-15  1.16343E+02  0.00000E+00  1.0E-07
  1.500E-01  1.71347E-06  1.79194E-15  6.39912E+01  0.00000E+00  1.0E-07
  1.750E-01  2.33223E-06  1.04245E-15  3.72265E+01  0.00000E+00  1.0E-07
  2.000E-01  3.04617E-06  6.41688E-16  2.29151E+01  0.00000E+00  1.0E-07
  2.250E-01  3.85531E-06  4.16093E-16  1.48590E+01  0.00000E+00  1.0E-07
  2.500E-01  4.75964E-06  2.82414E-16  1.00852E+01  0.00000E+00  1.0E-07
  2.750E-01  5.75916E-06  1.99307E-16  7.11737E+00  0.00000E+00  1.0E-07
  3.000E-01  6.85388E-06  1.45353E-16  5.19064E+00  0.00000E+00  1.0E-07
  3.250E-01  8.04378E-06  1.08962E-16  3.89111E+00  0.00000E+00  1.0E-07
  3.500E-01  9.32888E-06  8.35873E-17  2.98496E+00  0.00000E+00  1.0E-07
  3.750E-01  1.07092E-05  6.53779E-17  2.33469E+00  0.00000E+00  1.0E-07
  4.000E-01  1.21846E-05  5.19834E-17  1.85636E+00  0.00000E+00  1.1E-07
  4.250E-01  1.37553E-05  4.19183E-17  1.49693E+00  0.00000E+00  1.0E-07
  4.500E-01  1.54212E-05  3.42147E-17  1.22183E+00  0.00000E+00  1.3E-07
  4.750E-01  1.71822E-05  2.82238E-17  1.00789E+00  0.00000E+00  1.0E-07
  5.000E-01  1.90385E-05  2.34997E-17  8.39190E-01  0.00000E+00  1.4E-07
  5.250E-01  2.09899E-05  1.97289E-17  7.04532E-01  0.00000E+00  1.0E-07
  5.500E-01  2.30365E-05  1.66864E-17  5.95883E-01  0.00000E+00  1.4E-07
  5.750E-01  2.51783E-05  1.42080E-17  5.07379E-01  0.00000E+00  1.2E-07
  6.000E-01  2.74153E-05  1.21718E-17  4.34663E-01  0.00000E+00  1.2E-07
  6.250E-01  2.97475E-05  1.04858E-17  3.74455E-01  0.00000E+00  1.7E-07
  6.500E-01  3.21749E-05  9.07998E-18  3.24252E-01  0.00000E+00  1.0E-07
  6.750E-01  3.46974E-05  7.90023E-18  2.82123E-01  0.00000E+00  2.1E-07
  7.000E-01  3.73152E-05  6.90435E-18  2.46559E-01  0.00000E+00  1.0E-07
  7.250E-01  4.00281E-05  6.05906E-18  2.16373E-01  0.00000E+00  2.4E-07
  7.500E-01  4.28362E-05  5.33796E-18  1.90622E-01  0.00000E+00  1.0E-07
  7.750E-01  4.57395E-05  4.71991E-18  1.68551E-01  0.00000E+00  2.6E-07
  8.000E-01  4.87380E-05  4.18783E-18  1.49550E-01  0.00000E+00  1.1E-07
  8.250E-01  5.18317E-05  3.72784E-18  1.33124E-01  0.00000E+00  2.5E-07
  8.500E-01  5.50205E-05  3.32864E-18  1.18868E-01  0.00000E+00  1.9E-07
  8.750E-01  5.83045E-05  2.98090E-18  1.06450E-01  0.00000E+00  2.1E-07
  9.000E-01  6.16838E-05  2.67692E-18  9.55947E-02  0.00000E+00  2.7E-07
  9.250E-01  6.51582E-05  2.41032E-18  8.60742E-02  0.00000E+00  1.5E-07
  9.500E-01  6.87277E-05  2.17576E-18  7.76980E-02  0.00000E+00  3.3E-07
  9.750E-01  7.23925E-05  1.96878E-18  7.03063E-02  0.00000E+00  1.0E-07
  1.000E+00  7.61524E-05  1.78559E-18  6.37644E-02  0.00000E+00  1.0E-07
  1.100E+00  9.21439E-05  1.23396E-18  4.40656E-02  0.00000E+00  1.0E-07
  1.200E+00  1.09658E-04  8.78656E-19  3.13774E-02  0.00000E+00  1.0E-07
  1.300E+00  1.28695E-04  6.41889E-19  2.29223E-02  0.00000E+00  1.0E-07
  1.400E+00  1.49255E-04  4.79428E-19  1.71207E-02  0.00000E+00  1.0E-07
  1.500E+00  1.71338E-04  3.65077E-19  1.30371E-02  0.00000E+00  1.0E-07
  1.600E+00  1.94942E-04  2.82768E-19  1.00978E-02  0.00000E+00  1.0E-07
  1.700E+00  2.20070E-04  2.22341E-19  7.93992E-03  0.00000E+00  1.0E-07
  1.800E+00  2.46720E-04  1.77189E-19  6.32755E-03  0.00000E+00  1.0E-07
  1.900E+00  2.74892E-04  1.42917E-19  5.10366E-03  0.00000E+00  1.0E-07
  2.000E+00  3.04586E-04  1.16531E-19  4.16140E-03  0.00000E+00  1.0E-07
  2.100E+00  3.35803E-04  9.59543E-20  3.42659E-03  0.00000E+00  1.0E-07
  2.200E+00  3.68542E-04  7.97199E-20  2.84685E-03  0.00000E+00  1.0E-07
  2.300E+00  4.02802E-04  6.67747E-20  2.38457E-03  0.00000E+00  1.0E-07
  2.400E+00  4.38585E-04  5.63513E-20  2.01234E-03  0.00000E+00  1.0E-07
  2.500E+00  4.75889E-04  4.78833E-20  1.70994E-03  0.00000E+00  1.0E-07
  2.600E+00  5.14715E-04  4.09468E-20  1.46224E-03  0.00000E+00  1.0E-07
  2.700E+00  5.55063E-04  3.52215E-20  1.25778E-03  0.00000E+00  1.0E-07
  2.800E+00  5.96931E-04  3.04623E-20  1.08783E-03  0.00000E+00  1.0E-07
  2.900E+00  6.40321E-04  2.64802E-20  9.45625E-04  0.00000E+00  1.0E-07
  3.000E+00  6.85233E-04  2.31279E-20  8.25911E-04  0.00000E+00  1.0E-07
  3.100E+00  7.31665E-04  2.02895E-20  7.24552E-04  0.00000E+00  1.0E-07
  3.200E+00  7.79618E-04  1.78735E-20  6.38273E-04  0.00000E+00  1.0E-07
  3.300E+00  8.29092E-04  1.58065E-20  5.64461E-04  0.00000E+00  1.0E-07
  3.400E+00  8.80086E-04  1.40299E-20  5.01017E-04  0.00000E+00  1.0E-07
  3.500E+00  9.32601E-04  1.24960E-20  4.46240E-04  0.00000E+00  1.0E-07
  3.600E+00  9.86636E-04  1.11661E-20  3.98749E-04  0.00000E+00  1.0E-07
  3.700E+00  1.04219E-03  1.00085E-20  3.57411E-04  0.00000E+00  1.0E-07
  3.800E+00  1.09927E-03  8.99716E-21  3.21294E-04  0.00000E+00  1.0E-07
  3.900E+00  1.15786E-03  8.11037E-21  2.89627E-04  0.00000E+00  1.0E-07
  4.000E+00  1.21797E-03  7.33021E-21  2.61767E-04  0.00000E+00  1.0E-07
  4.100E+00  1.27961E-03  6.64165E-21  2.37178E-04  0.00000E+00  1.0E-07
  4.200E+00  1.34276E-03  6.03209E-21  2.15410E-04  0.00000E+00  1.0E-07
  4.300E+00  1.40743E-03  5.49089E-21  1.96083E-04  0.00000E+00  1.0E-07
  4.400E+00  1.47362E-03  5.00906E-21  1.78877E-04  0.00000E+00  1.0E-07
  4.500E+00  1.54133E-03  4.57895E-21  1.63517E-04  0.00000E+00  1.0E-07
  4.600E+00  1.61056E-03  4.19404E-21  1.49772E-04  0.00000E+00  1.0E-07
  4.700E+00  1.68131E-03  3.84874E-21  1.37441E-04  0.00000E+00  1.0E-07
  4.800E+00  1.75357E-03  3.53827E-21  1.26354E-04  0.00000E+00  1.0E-07
  4.900E+00  1.82735E-03  3.25849E-21  1.16363E-04  0.00000E+00  1.0E-07
  5.000E+00  1.90265E-03  3.00583E-21  1.07340E-04  0.00000E+00  1.0E-07
  5.100E+00  1.97947E-03  2.77720E-21  9.91754E-05  0.00000E+00  1.0E-07
  5.200E+00  2.05780E-03  2.56990E-21  9.17728E-05  0.00000E+00  1.0E-07
  5.300E+00  2.13765E-03  2.38159E-21  8.50482E-05  0.00000E+00  1.0E-07
  5.400E+00  2.21902E-03  2.21023E-21  7.89286E-05  0.00000E+00  1.0E-07
  5.500E+00  2.30190E-03  2.05401E-21  7.33499E-05  0.00000E+00  1.0E-07
  5.600E+00  2.38630E-03  1.91135E-21  6.82555E-05  0.00000E+00  1.0E-07
  5.700E+00  2.47222E-03  1.78087E-21  6.35960E-05  0.00000E+00  1.0E-07
  5.800E+00  2.55965E-03  1.66134E-21  5.93275E-05  0.00000E+00  1.0E-07
  5.900E+00  2.64859E-03  1.55167E-21  5.54112E-05  0.00000E+00  1.0E-07
  6.000E+00  2.73905E-03  1.45091E-21  5.18130E-05  0.00000E+00  1.0E-07
  6.100E+00  2.83103E-03  1.35820E-21  4.85022E-05  0.00000E+00  1.0E-07
  6.200E+00  2.92452E-03  1.27278E-21  4.54518E-05  0.00000E+00  1.0E-07
  6.300E+00  3.01952E-03  1.19397E-21  4.26375E-05  0.00000E+00  1.0E-07
  6.400E+00  3.11604E-03  1.12117E-21  4.00378E-05  0.00000E+00  1.0E-07
  6.500E+00  3.21407E-03  1.05384E-21  3.76333E-05  0.00000E+00  1.0E-07
  6.600E+00  3.31362E-03  9.91487E-22  3.54067E-05  0.00000E+00  1.0E-07
  6.700E+00  3.41468E-03  9.33681E-22  3.33424E-05  0.00000E+00  1.0E-07
  6.800E+00  3.51725E-03  8.80028E-22  3.14264E-05  0.00000E+00  1.0E-07
  6.900E+00  3.62133E-03  8.30175E-22  2.96461E-05  0.00000E+00  1.0E-07
  7.000E+00  3.72692E-03  7.83804E-22  2.79902E-05  0.00000E+00  1.0E-07
  7.100E+00  3.83403E-03  7.40627E-22  2.64483E-05  0.00000E+00  1.0E-07
  7.200E+00  3.94265E-03  7.00384E-22  2.50112E-05  0.00000E+00  1.0E-07
  7.300E+00  4.05278E-03  6.62838E-22  2.36704E-05  0.00000E+00  1.0E-07
  7.400E+00  4.16442E-03  6.27775E-22  2.24182E-05  0.00000E+00  1.0E-07
  7.500E+00  4.27757E-03  5.95001E-22  2.12479E-05  0.00000E+00  1.0E-07
  7.600E+00  4.39223E-03  5.64339E-22  2.01529E-05  0.00000E+00  1.0E-07
  7.700E+00  4.50840E-03  5.35627E-22  1.91276E-05  0.00000E+00  1.0E-07
  7.800E+00  4.62608E-03  5.08719E-22  1.81667E-05  0.00000E+00  1.0E-07
  7.900E+00  4.74527E-03  4.83480E-22  1.72654E-05  0.00000E+00  1.0E-07
  8.000E+00  4.86597E-03  4.59788E-22  1.64193E-05  0.00000E+00  1.0E-07
  8.100E+00  4.98817E-03  4.37529E-22  1.56245E-05  0.00000E+00  1.0E-07
  8.200E+00  5.11188E-03  4.16602E-22  1.48771E-05  0.00000E+00  1.0E-07
  8.300E+00  5.23711E-03  3.96912E-22  1.41740E-05  0.00000E+00  1.0E-07
  8.400E+00  5.36383E-03  3.78371E-22  1.35119E-05  0.00000E+00  1.0E-07
  8.500E+00  5.49207E-03  3.60901E-22  1.28880E-05  0.00000E+00  1.0E-07
  8.600E+00  5.62181E-03  3.44428E-22  1.22998E-05  0.00000E+00  1.0E-07
  8.700E+00  5.75306E-03  3.28885E-22  1.17447E-05  0.00000E+00  1.0E-07
  8.800E+00  5.88581E-03  3.14208E-22  1.12206E-05  0.00000E+00  1.0E-07
  8.900E+00  6.02007E-03  3.00342E-22  1.07254E-05  0.00000E+00  1.0E-07
  9.000E+00  6.15583E-03  2.87232E-22  1.02572E-05  0.00000E+00  1.0E-07
  9.100E+00  6.29310E-03  2.74830E-22  9.81435E-06  0.00000E+00  1.0E-07
  9.200E+00  6.43187E-03  2.63090E-22  9.39512E-06  0.00000E+00  1.0E-07
  9.300E+00  6.57214E-03  2.51971E-22  8.99805E-06  0.00000E+00  1.0E-07
  9.400E+00  6.71392E-03  2.41433E-22  8.62173E-06  0.00000E+00  1.0E-07
  9.500E+00  6.85720E-03  2.31440E-22  8.26489E-06  0.00000E+00  1.0E-07
  9.600E+00  7.00198E-03  2.21960E-22  7.92632E-06  0.00000E+00  1.0E-07
  9.700E+00  7.14827E-03  2.12960E-22  7.60492E-06  0.00000E+00  1.0E-07
  9.800E+00  7.29605E-03  2.04411E-22  7.29965E-06  0.00000E+00  1.0E-07
  9.900E+00  7.44534E-03  1.96287E-22  7.00955E-06  0.00000E+00  1.0E-07
  1.000E+01  7.59612E-03  1.88563E-22  6.73372E-06  0.00000E+00  1.0E-07
  1.025E+01  7.97965E-03  1.70852E-22  6.10125E-06  0.00000E+00  1.0E-07
  1.050E+01  8.37255E-03  1.55173E-22  5.54133E-06  0.00000E+00  1.0E-07
  1.075E+01  8.77480E-03  1.41252E-22  5.04420E-06  0.00000E+00  1.0E-07
  1.100E+01  9.18641E-03  1.28858E-22  4.60161E-06  0.00000E+00  1.0E-07
  1.125E+01  9.60736E-03  1.17794E-22  4.20651E-06  0.00000E+00  1.0E-07
  1.150E+01  1.00376E-02  1.07893E-22  3.85292E-06  0.00000E+00  1.0E-07
  1.175E+01  1.04773E-02  9.90103E-23  3.53572E-06  0.00000E+00  1.0E-07
  1.200E+01  1.09262E-02  9.10234E-23  3.25051E-06  0.00000E+00  1.0E-07
  1.225E+01  1.13844E-02  8.38259E-23  2.99348E-06  0.00000E+00  1.0E-07
  1.250E+01  1.18520E-02  7.73259E-23  2.76136E-06  0.00000E+00  1.0E-07
  1.275E+01  1.23288E-02  7.14439E-23  2.55131E-06  0.00000E+00  1.0E-07
  1.300E+01  1.28150E-02  6.61106E-23  2.36085E-06  0.00000E+00  1.0E-07
  1.325E+01  1.33104E-02  6.12658E-23  2.18784E-06  0.00000E+00  1.0E-07
  1.350E+01  1.38150E-02  5.68568E-23  2.03039E-06  0.00000E+00  1.0E-07
  1.375E+01  1.43290E-02  5.28372E-23  1.88685E-06  0.00000E+00  1.0E-07
  1.400E+01  1.48521E-02  4.91666E-23  1.75577E-06  0.00000E+00  1.0E-07
  1.425E+01  1.53845E-02  4.58092E-23  1.63588E-06  0.00000E+00  1.0E-07
  1.450E+01  1.59262E-02  4.27335E-23  1.52604E-06  0.00000E+00  1.0E-07
  1.475E+01  1.64770E-02  3.99115E-23  1.42527E-06  0.00000E+00  1.0E-07
  1.500E+01  1.70371E-02  3.73187E-23  1.33267E-06  0.00000E+00  1.0E-07
  1.525E+01  1.76063E-02  3.49329E-23  1.24748E-06  0.00000E+00  1.0E-07
  1.550E+01  1.81848E-02  3.27347E-23  1.16898E-06  0.00000E+00  1.0E-07
