 #  Scattering field.
 #  All quantities in atomic units (a.u.), unless otherwise indicated.
 #  Z =   9, NELEC =   9,   projectile: electron
 #  Kinetic energy = 1.35973E+05 a.u. = 3.70000E+06 eV
 #
 #   i       r           r*V         r*Vst        r*Vex       r*Vpol       r*Wabs        rho_e
 #------------------------------------------------------------------------------------------------
     1  0.00000E+00 -0.00000E+00 -0.00000E+00  0.00000E+00  0.00000E+00  0.00000E+00  4.65794E+02
     2  1.33299E-07 -2.74385E-02 -2.74385E-02 -2.33863E-10  0.00000E+00  0.00000E+00  4.65794E+02
     3  2.69894E-07 -5.55550E-02 -5.55550E-02 -4.73469E-10  0.00000E+00  0.00000E+00  4.65754E+02
     4  4.09864E-07 -8.43655E-02 -8.43655E-02 -7.18954E-10  0.00000E+00  0.00000E+00  4.65714E+02
     5  5.53292E-07 -1.13887E-01 -1.13887E-01 -9.70463E-10  0.00000E+00  0.00000E+00  4.65673E+02
     6  7.00264E-07 -1.44136E-01 -1.44136E-01 -1.22814E-09  0.00000E+00  0.00000E+00  4.65631E+02
     7  8.50866E-07 -1.75131E-01 -1.75131E-01 -1.49215E-09  0.00000E+00  0.00000E+00  4.65589E+02
     8  1.00519E-06 -2.06888E-01 -2.06888E-01 -1.76264E-09  0.00000E+00  0.00000E+00  4.65546E+02
     9  1.16333E-06 -2.39428E-01 -2.39428E-01 -2.03976E-09  0.00000E+00  0.00000E+00  4.65503E+02
    10  1.32537E-06 -2.72767E-01 -2.72767E-01 -2.32369E-09  0.00000E+00  0.00000E+00  4.65459E+02
    11  1.49142E-06 -3.06926E-01 -3.06926E-01 -2.61459E-09  0.00000E+00  0.00000E+00  4.65415E+02
    12  1.66157E-06 -3.41923E-01 -3.41923E-01 -2.91264E-09  0.00000E+00  0.00000E+00  4.65371E+02
    13  1.83592E-06 -3.77779E-01 -3.77779E-01 -3.21801E-09  0.00000E+00  0.00000E+00  4.65325E+02
    14  2.01458E-06 -4.14513E-01 -4.14513E-01 -3.53088E-09  0.00000E+00  0.00000E+00  4.65280E+02
    15  2.19766E-06 -4.52146E-01 -4.52146E-01 -3.85145E-09  0.00000E+00  0.00000E+00  4.65234E+02
    16  2.38525E-06 -4.90700E-01 -4.90700E-01 -4.17989E-09  0.00000E+00  0.00000E+00  4.65187E+02
    17  2.57749E-06 -5.30195E-01 -5.30195E-01 -4.51641E-09  0.00000E+00  0.00000E+00  4.65140E+02
    18  2.77447E-06 -5.70654E-01 -5.70654E-01 -4.86120E-09  0.00000E+00  0.00000E+00  4.65093E+02
    19  2.97632E-06 -6.12098E-01 -6.12098E-01 -5.21448E-09  0.00000E+00  0.00000E+00  4.65045E+02
    20  3.18316E-06 -6.54550E-01 -6.54550E-01 -5.57646E-09  0.00000E+00  0.00000E+00  4.64997E+02
    21  3.39510E-06 -6.98034E-01 -6.98034E-01 -5.94735E-09  0.00000E+00  0.00000E+00  4.64948E+02
    22  3.61228E-06 -7.42571E-01 -7.42571E-01 -6.32738E-09  0.00000E+00  0.00000E+00  4.64900E+02
    23  3.83483E-06 -7.88188E-01 -7.88188E-01 -6.71677E-09  0.00000E+00  0.00000E+00  4.64850E+02
    24  4.06288E-06 -8.34906E-01 -8.34906E-01 -7.11576E-09  0.00000E+00  0.00000E+00  4.64801E+02
    25  4.29656E-06 -8.82751E-01 -8.82751E-01 -7.52460E-09  0.00000E+00  0.00000E+00  4.64752E+02
    26  4.53602E-06 -9.31748E-01 -9.31748E-01 -7.94353E-09  0.00000E+00  0.00000E+00  4.64702E+02
    27  4.78139E-06 -9.81922E-01 -9.81922E-01 -8.37281E-09  0.00000E+00  0.00000E+00  4.64652E+02
    28  5.03282E-06 -1.03330E+00 -1.03330E+00 -8.81270E-09  0.00000E+00  0.00000E+00  4.64602E+02
    29  5.29047E-06 -1.08590E+00 -1.08590E+00 -9.26347E-09  0.00000E+00  0.00000E+00  4.64552E+02
    30  5.55448E-06 -1.13976E+00 -1.13976E+00 -9.72539E-09  0.00000E+00  0.00000E+00  4.64502E+02
    31  5.82501E-06 -1.19490E+00 -1.19490E+00 -1.01988E-08  0.00000E+00  0.00000E+00  4.64451E+02
    32  6.10223E-06 -1.25134E+00 -1.25134E+00 -1.06839E-08  0.00000E+00  0.00000E+00  4.64401E+02
    33  6.38630E-06 -1.30912E+00 -1.30912E+00 -1.11810E-08  0.00000E+00  0.00000E+00  4.64351E+02
    34  6.67738E-06 -1.36826E+00 -1.36826E+00 -1.16905E-08  0.00000E+00  0.00000E+00  4.64301E+02
    35  6.97566E-06 -1.42879E+00 -1.42879E+00 -1.22126E-08  0.00000E+00  0.00000E+00  4.64252E+02
    36  7.28131E-06 -1.49073E+00 -1.49073E+00 -1.27478E-08  0.00000E+00  0.00000E+00  4.64202E+02
    37  7.59451E-06 -1.55411E+00 -1.55411E+00 -1.32962E-08  0.00000E+00  0.00000E+00  4.64153E+02
    38  7.91544E-06 -1.61897E+00 -1.61897E+00 -1.38584E-08  0.00000E+00  0.00000E+00  4.64104E+02
    39  8.24431E-06 -1.68532E+00 -1.68532E+00 -1.44346E-08  0.00000E+00  0.00000E+00  4.64056E+02
    40  8.58130E-06 -1.75319E+00 -1.75319E+00 -1.50252E-08  0.00000E+00  0.00000E+00  4.64008E+02
    41  8.92661E-06 -1.82262E+00 -1.82262E+00 -1.56306E-08  0.00000E+00  0.00000E+00  4.63961E+02
    42  9.28046E-06 -1.89362E+00 -1.89362E+00 -1.62512E-08  0.00000E+00  0.00000E+00  4.63914E+02
    43  9.64305E-06 -1.96623E+00 -1.96623E+00 -1.68873E-08  0.00000E+00  0.00000E+00  4.63868E+02
    44  1.00146E-05 -2.04046E+00 -2.04046E+00 -1.75395E-08  0.00000E+00  0.00000E+00  4.63823E+02
    45  1.03953E-05 -2.11636E+00 -2.11636E+00 -1.82081E-08  0.00000E+00  0.00000E+00  4.63778E+02
    46  1.07855E-05 -2.19393E+00 -2.19393E+00 -1.88935E-08  0.00000E+00  0.00000E+00  4.63734E+02
    47  1.11852E-05 -2.27320E+00 -2.27320E+00 -1.95964E-08  0.00000E+00  0.00000E+00  4.63691E+02
    48  1.15949E-05 -2.35421E+00 -2.35421E+00 -2.03170E-08  0.00000E+00  0.00000E+00  4.63650E+02
    49  1.20147E-05 -2.43696E+00 -2.43696E+00 -2.10559E-08  0.00000E+00  0.00000E+00  4.63609E+02
    50  1.24448E-05 -2.52149E+00 -2.52149E+00 -2.18136E-08  0.00000E+00  0.00000E+00  4.63569E+02
    51  1.28856E-05 -2.60781E+00 -2.60781E+00 -2.25906E-08  0.00000E+00  0.00000E+00  4.63531E+02
    52  1.33372E-05 -2.69594E+00 -2.69594E+00 -2.33875E-08  0.00000E+00  0.00000E+00  4.63494E+02
    53  1.38001E-05 -2.78590E+00 -2.78590E+00 -2.42048E-08  0.00000E+00  0.00000E+00  4.63458E+02
    54  1.42743E-05 -2.87770E+00 -2.87770E+00 -2.50431E-08  0.00000E+00  0.00000E+00  4.63423E+02
    55  1.47603E-05 -2.97136E+00 -2.97136E+00 -2.59029E-08  0.00000E+00  0.00000E+00  4.63390E+02
    56  1.52583E-05 -3.06688E+00 -3.06688E+00 -2.67850E-08  0.00000E+00  0.00000E+00  4.63359E+02
    57  1.57685E-05 -3.16428E+00 -3.16428E+00 -2.76899E-08  0.00000E+00  0.00000E+00  4.63329E+02
    58  1.62914E-05 -3.26356E+00 -3.26356E+00 -2.86183E-08  0.00000E+00  0.00000E+00  4.63300E+02
    59  1.68272E-05 -3.36472E+00 -3.36472E+00 -2.95709E-08  0.00000E+00  0.00000E+00  4.63273E+02
    60  1.73763E-05 -3.46777E+00 -3.46777E+00 -3.05484E-08  0.00000E+00  0.00000E+00  4.63248E+02
    61  1.79389E-05 -3.57270E+00 -3.57270E+00 -3.15515E-08  0.00000E+00  0.00000E+00  4.63224E+02
    62  1.85154E-05 -3.67950E+00 -3.67950E+00 -3.25810E-08  0.00000E+00  0.00000E+00  4.63202E+02
    63  1.91062E-05 -3.78815E+00 -3.78815E+00 -3.36377E-08  0.00000E+00  0.00000E+00  4.63182E+02
    64  1.97115E-05 -3.89864E+00 -3.89864E+00 -3.47224E-08  0.00000E+00  0.00000E+00  4.63163E+02
    65  2.03318E-05 -4.01095E+00 -4.01095E+00 -3.58358E-08  0.00000E+00  0.00000E+00  4.63146E+02
    66  2.09674E-05 -4.12505E+00 -4.12505E+00 -3.69790E-08  0.00000E+00  0.00000E+00  4.63130E+02
    67  2.16188E-05 -4.24090E+00 -4.24090E+00 -3.81529E-08  0.00000E+00  0.00000E+00  4.63115E+02
    68  2.22862E-05 -4.35846E+00 -4.35846E+00 -3.93583E-08  0.00000E+00  0.00000E+00  4.63102E+02
    69  2.29701E-05 -4.47768E+00 -4.47768E+00 -4.05962E-08  0.00000E+00  0.00000E+00  4.63090E+02
    70  2.36709E-05 -4.59851E+00 -4.59851E+00 -4.18677E-08  0.00000E+00  0.00000E+00  4.63079E+02
    71  2.43891E-05 -4.72088E+00 -4.72088E+00 -4.31738E-08  0.00000E+00  0.00000E+00  4.63068E+02
    72  2.51249E-05 -4.84471E+00 -4.84470E+00 -4.45156E-08  0.00000E+00  0.00000E+00  4.63058E+02
    73  2.58790E-05 -4.96991E+00 -4.96991E+00 -4.58942E-08  0.00000E+00  0.00000E+00  4.63048E+02
    74  2.66517E-05 -5.09641E+00 -5.09641E+00 -4.73109E-08  0.00000E+00  0.00000E+00  4.63038E+02
    75  2.74434E-05 -5.22408E+00 -5.22408E+00 -4.87668E-08  0.00000E+00  0.00000E+00  4.63028E+02
    76  2.82548E-05 -5.35281E+00 -5.35281E+00 -5.02632E-08  0.00000E+00  0.00000E+00  4.63017E+02
    77  2.90862E-05 -5.48247E+00 -5.48247E+00 -5.18015E-08  0.00000E+00  0.00000E+00  4.63005E+02
    78  2.99381E-05 -5.61292E+00 -5.61292E+00 -5.33831E-08  0.00000E+00  0.00000E+00  4.62993E+02
    79  3.08111E-05 -5.74399E+00 -5.74399E+00 -5.50095E-08  0.00000E+00  0.00000E+00  4.62980E+02
    80  3.17056E-05 -5.87553E+00 -5.87553E+00 -5.66823E-08  0.00000E+00  0.00000E+00  4.62967E+02
    81  3.26222E-05 -6.00733E+00 -6.00733E+00 -5.84030E-08  0.00000E+00  0.00000E+00  4.62953E+02
    82  3.35615E-05 -6.13920E+00 -6.13920E+00 -6.01734E-08  0.00000E+00  0.00000E+00  4.62938E+02
    83  3.45240E-05 -6.27093E+00 -6.27093E+00 -6.19951E-08  0.00000E+00  0.00000E+00  4.62922E+02
    84  3.55103E-05 -6.40227E+00 -6.40227E+00 -6.38701E-08  0.00000E+00  0.00000E+00  4.62906E+02
    85  3.65209E-05 -6.53298E+00 -6.53298E+00 -6.58002E-08  0.00000E+00  0.00000E+00  4.62889E+02
    86  3.75565E-05 -6.66279E+00 -6.66279E+00 -6.77874E-08  0.00000E+00  0.00000E+00  4.62871E+02
    87  3.86177E-05 -6.79143E+00 -6.79143E+00 -6.98338E-08  0.00000E+00  0.00000E+00  4.62852E+02
    88  3.97051E-05 -6.91860E+00 -6.91860E+00 -7.19416E-08  0.00000E+00  0.00000E+00  4.62832E+02
    89  4.08194E-05 -7.04400E+00 -7.04400E+00 -7.41128E-08  0.00000E+00  0.00000E+00  4.62812E+02
    90  4.19612E-05 -7.16731E+00 -7.16731E+00 -7.63499E-08  0.00000E+00  0.00000E+00  4.62790E+02
    91  4.31312E-05 -7.28821E+00 -7.28821E+00 -7.86551E-08  0.00000E+00  0.00000E+00  4.62768E+02
    92  4.43302E-05 -7.40636E+00 -7.40636E+00 -8.10310E-08  0.00000E+00  0.00000E+00  4.62744E+02
    93  4.55587E-05 -7.52145E+00 -7.52145E+00 -8.34800E-08  0.00000E+00  0.00000E+00  4.62720E+02
    94  4.68176E-05 -7.63314E+00 -7.63314E+00 -8.60046E-08  0.00000E+00  0.00000E+00  4.62694E+02
    95  4.81076E-05 -7.74112E+00 -7.74112E+00 -8.86075E-08  0.00000E+00  0.00000E+00  4.62667E+02
    96  4.94295E-05 -7.84507E+00 -7.84507E+00 -9.12912E-08  0.00000E+00  0.00000E+00  4.62639E+02
    97  5.07840E-05 -7.94472E+00 -7.94472E+00 -9.40584E-08  0.00000E+00  0.00000E+00  4.62610E+02
    98  5.21720E-05 -8.03981E+00 -8.03981E+00 -9.69118E-08  0.00000E+00  0.00000E+00  4.62580E+02
    99  5.35943E-05 -8.13009E+00 -8.13009E+00 -9.98540E-08  0.00000E+00  0.00000E+00  4.62549E+02
   100  5.50517E-05 -8.21538E+00 -8.21538E+00 -1.02887E-07  0.00000E+00  0.00000E+00  4.62516E+02
   101  5.65452E-05 -8.29554E+00 -8.29554E+00 -1.06015E-07  0.00000E+00  0.00000E+00  4.62482E+02
   102  5.80755E-05 -8.37044E+00 -8.37044E+00 -1.09239E-07  0.00000E+00  0.00000E+00  4.62446E+02
   103  5.96437E-05 -8.44006E+00 -8.44006E+00 -1.12562E-07  0.00000E+00  0.00000E+00  4.62410E+02
   104  6.12505E-05 -8.50437E+00 -8.50437E+00 -1.15986E-07  0.00000E+00  0.00000E+00  4.62372E+02
   105  6.28971E-05 -8.56343E+00 -8.56343E+00 -1.19514E-07  0.00000E+00  0.00000E+00  4.62332E+02
   106  6.45844E-05 -8.61734E+00 -8.61734E+00 -1.23148E-07  0.00000E+00  0.00000E+00  4.62292E+02
   107  6.63134E-05 -8.66626E+00 -8.66626E+00 -1.26890E-07  0.00000E+00  0.00000E+00  4.62250E+02
   108  6.80850E-05 -8.71036E+00 -8.71036E+00 -1.30742E-07  0.00000E+00  0.00000E+00  4.62207E+02
   109  6.99005E-05 -8.74988E+00 -8.74988E+00 -1.34706E-07  0.00000E+00  0.00000E+00  4.62162E+02
   110  7.17608E-05 -8.78507E+00 -8.78507E+00 -1.38785E-07  0.00000E+00  0.00000E+00  4.62116E+02
   111  7.36670E-05 -8.81622E+00 -8.81622E+00 -1.42980E-07  0.00000E+00  0.00000E+00  4.62069E+02
   112  7.56204E-05 -8.84361E+00 -8.84361E+00 -1.47293E-07  0.00000E+00  0.00000E+00  4.62020E+02
   113  7.76220E-05 -8.86756E+00 -8.86756E+00 -1.51727E-07  0.00000E+00  0.00000E+00  4.61971E+02
   114  7.96731E-05 -8.88836E+00 -8.88836E+00 -1.56283E-07  0.00000E+00  0.00000E+00  4.61920E+02
   115  8.17748E-05 -8.90632E+00 -8.90632E+00 -1.60964E-07  0.00000E+00  0.00000E+00  4.61868E+02
   116  8.39285E-05 -8.92174E+00 -8.92174E+00 -1.65771E-07  0.00000E+00  0.00000E+00  4.61815E+02
   117  8.61354E-05 -8.93488E+00 -8.93488E+00 -1.70708E-07  0.00000E+00  0.00000E+00  4.61761E+02
   118  8.83968E-05 -8.94602E+00 -8.94602E+00 -1.75776E-07  0.00000E+00  0.00000E+00  4.61706E+02
   119  9.07140E-05 -8.95540E+00 -8.95540E+00 -1.80977E-07  0.00000E+00  0.00000E+00  4.61649E+02
   120  9.30886E-05 -8.96325E+00 -8.96325E+00 -1.86315E-07  0.00000E+00  0.00000E+00  4.61592E+02
   121  9.55217E-05 -8.96978E+00 -8.96978E+00 -1.91792E-07  0.00000E+00  0.00000E+00  4.61533E+02
   122  9.80150E-05 -8.97517E+00 -8.97517E+00 -1.97411E-07  0.00000E+00  0.00000E+00  4.61474E+02
   123  1.00570E-04 -8.97959E+00 -8.97959E+00 -2.03174E-07  0.00000E+00  0.00000E+00  4.61414E+02
   124  1.03188E-04 -8.98319E+00 -8.98319E+00 -2.09086E-07  0.00000E+00  0.00000E+00  4.61352E+02
   125  1.05871E-04 -8.98610E+00 -8.98610E+00 -2.15148E-07  0.00000E+00  0.00000E+00  4.61290E+02
   126  1.08620E-04 -8.98843E+00 -8.98843E+00 -2.21364E-07  0.00000E+00  0.00000E+00  4.61227E+02
   127  1.11437E-04 -8.99029E+00 -8.99029E+00 -2.27738E-07  0.00000E+00  0.00000E+00  4.61162E+02
   128  1.14323E-04 -8.99175E+00 -8.99175E+00 -2.34273E-07  0.00000E+00  0.00000E+00  4.61097E+02
   129  1.17281E-04 -8.99288E+00 -8.99288E+00 -2.40972E-07  0.00000E+00  0.00000E+00  4.61031E+02
   130  1.20312E-04 -8.99375E+00 -8.99375E+00 -2.47840E-07  0.00000E+00  0.00000E+00  4.60964E+02
   131  1.23418E-04 -8.99441E+00 -8.99441E+00 -2.54881E-07  0.00000E+00  0.00000E+00  4.60896E+02
   132  1.26600E-04 -8.99490E+00 -8.99490E+00 -2.62097E-07  0.00000E+00  0.00000E+00  4.60826E+02
   133  1.29861E-04 -8.99526E+00 -8.99526E+00 -2.69495E-07  0.00000E+00  0.00000E+00  4.60756E+02
   134  1.33203E-04 -8.99551E+00 -8.99551E+00 -2.77077E-07  0.00000E+00  0.00000E+00  4.60686E+02
   135  1.36627E-04 -8.99567E+00 -8.99567E+00 -2.84847E-07  0.00000E+00  0.00000E+00  4.60614E+02
   136  1.40136E-04 -8.99577E+00 -8.99577E+00 -2.92812E-07  0.00000E+00  0.00000E+00  4.60541E+02
   137  1.43732E-04 -8.99581E+00 -8.99581E+00 -3.00975E-07  0.00000E+00  0.00000E+00  4.60467E+02
   138  1.47416E-04 -8.99582E+00 -8.99582E+00 -3.09340E-07  0.00000E+00  0.00000E+00  4.60392E+02
   139  1.51191E-04 -8.99580E+00 -8.99580E+00 -3.17913E-07  0.00000E+00  0.00000E+00  4.60317E+02
   140  1.55060E-04 -8.99575E+00 -8.99575E+00 -3.26699E-07  0.00000E+00  0.00000E+00  4.60240E+02
   141  1.59024E-04 -8.99568E+00 -8.99568E+00 -3.35702E-07  0.00000E+00  0.00000E+00  4.60162E+02
   142  1.63087E-04 -8.99561E+00 -8.99560E+00 -3.44929E-07  0.00000E+00  0.00000E+00  4.60084E+02
   143  1.67249E-04 -8.99551E+00 -8.99551E+00 -3.54384E-07  0.00000E+00  0.00000E+00  4.60004E+02
   144  1.71515E-04 -8.99542E+00 -8.99541E+00 -3.64072E-07  0.00000E+00  0.00000E+00  4.59923E+02
   145  1.75885E-04 -8.99531E+00 -8.99531E+00 -3.74000E-07  0.00000E+00  0.00000E+00  4.59842E+02
   146  1.80364E-04 -8.99520E+00 -8.99520E+00 -3.84173E-07  0.00000E+00  0.00000E+00  4.59759E+02
   147  1.84953E-04 -8.99508E+00 -8.99508E+00 -3.94598E-07  0.00000E+00  0.00000E+00  4.59675E+02
   148  1.89656E-04 -8.99496E+00 -8.99496E+00 -4.05279E-07  0.00000E+00  0.00000E+00  4.59591E+02
   149  1.94475E-04 -8.99483E+00 -8.99483E+00 -4.16223E-07  0.00000E+00  0.00000E+00  4.59505E+02
   150  1.99413E-04 -8.99470E+00 -8.99470E+00 -4.27437E-07  0.00000E+00  0.00000E+00  4.59418E+02
   151  2.04473E-04 -8.99457E+00 -8.99457E+00 -4.38928E-07  0.00000E+00  0.00000E+00  4.59330E+02
   152  2.09658E-04 -8.99443E+00 -8.99443E+00 -4.50700E-07  0.00000E+00  0.00000E+00  4.59240E+02
   153  2.14972E-04 -8.99429E+00 -8.99429E+00 -4.62763E-07  0.00000E+00  0.00000E+00  4.59150E+02
   154  2.20416E-04 -8.99415E+00 -8.99414E+00 -4.75121E-07  0.00000E+00  0.00000E+00  4.59059E+02
   155  2.25995E-04 -8.99400E+00 -8.99400E+00 -4.87784E-07  0.00000E+00  0.00000E+00  4.58966E+02
   156  2.31712E-04 -8.99385E+00 -8.99384E+00 -5.00757E-07  0.00000E+00  0.00000E+00  4.58872E+02
   157  2.37570E-04 -8.99369E+00 -8.99369E+00 -5.14048E-07  0.00000E+00  0.00000E+00  4.58777E+02
   158  2.43573E-04 -8.99353E+00 -8.99353E+00 -5.27666E-07  0.00000E+00  0.00000E+00  4.58680E+02
   159  2.49724E-04 -8.99337E+00 -8.99337E+00 -5.41617E-07  0.00000E+00  0.00000E+00  4.58583E+02
   160  2.56027E-04 -8.99320E+00 -8.99320E+00 -5.55910E-07  0.00000E+00  0.00000E+00  4.58484E+02
   161  2.62485E-04 -8.99303E+00 -8.99303E+00 -5.70553E-07  0.00000E+00  0.00000E+00  4.58383E+02
   162  2.69104E-04 -8.99285E+00 -8.99285E+00 -5.85555E-07  0.00000E+00  0.00000E+00  4.58282E+02
   163  2.75885E-04 -8.99267E+00 -8.99267E+00 -6.00923E-07  0.00000E+00  0.00000E+00  4.58179E+02
   164  2.82835E-04 -8.99249E+00 -8.99249E+00 -6.16667E-07  0.00000E+00  0.00000E+00  4.58074E+02
   165  2.89956E-04 -8.99230E+00 -8.99230E+00 -6.32796E-07  0.00000E+00  0.00000E+00  4.57968E+02
   166  2.97253E-04 -8.99210E+00 -8.99210E+00 -6.49320E-07  0.00000E+00  0.00000E+00  4.57861E+02
   167  3.04730E-04 -8.99191E+00 -8.99191E+00 -6.66246E-07  0.00000E+00  0.00000E+00  4.57752E+02
   168  3.12392E-04 -8.99170E+00 -8.99170E+00 -6.83586E-07  0.00000E+00  0.00000E+00  4.57641E+02
   169  3.20243E-04 -8.99149E+00 -8.99149E+00 -7.01349E-07  0.00000E+00  0.00000E+00  4.57529E+02
   170  3.28289E-04 -8.99128E+00 -8.99128E+00 -7.19545E-07  0.00000E+00  0.00000E+00  4.57416E+02
   171  3.36533E-04 -8.99106E+00 -8.99106E+00 -7.38184E-07  0.00000E+00  0.00000E+00  4.57300E+02
   172  3.44980E-04 -8.99084E+00 -8.99084E+00 -7.57277E-07  0.00000E+00  0.00000E+00  4.57183E+02
   173  3.53637E-04 -8.99061E+00 -8.99061E+00 -7.76836E-07  0.00000E+00  0.00000E+00  4.57065E+02
   174  3.62507E-04 -8.99037E+00 -8.99037E+00 -7.96870E-07  0.00000E+00  0.00000E+00  4.56944E+02
   175  3.71596E-04 -8.99013E+00 -8.99013E+00 -8.17392E-07  0.00000E+00  0.00000E+00  4.56822E+02
   176  3.80910E-04 -8.98988E+00 -8.98988E+00 -8.38413E-07  0.00000E+00  0.00000E+00  4.56698E+02
   177  3.90454E-04 -8.98963E+00 -8.98963E+00 -8.59945E-07  0.00000E+00  0.00000E+00  4.56572E+02
   178  4.00234E-04 -8.98937E+00 -8.98937E+00 -8.82000E-07  0.00000E+00  0.00000E+00  4.56444E+02
   179  4.10255E-04 -8.98910E+00 -8.98910E+00 -9.04591E-07  0.00000E+00  0.00000E+00  4.56314E+02
   180  4.20524E-04 -8.98883E+00 -8.98883E+00 -9.27730E-07  0.00000E+00  0.00000E+00  4.56182E+02
   181  4.31047E-04 -8.98855E+00 -8.98855E+00 -9.51430E-07  0.00000E+00  0.00000E+00  4.56048E+02
   182  4.41830E-04 -8.98826E+00 -8.98826E+00 -9.75705E-07  0.00000E+00  0.00000E+00  4.55912E+02
   183  4.52879E-04 -8.98797E+00 -8.98797E+00 -1.00057E-06  0.00000E+00  0.00000E+00  4.55773E+02
   184  4.64201E-04 -8.98767E+00 -8.98767E+00 -1.02603E-06  0.00000E+00  0.00000E+00  4.55633E+02
   185  4.75803E-04 -8.98736E+00 -8.98736E+00 -1.05212E-06  0.00000E+00  0.00000E+00  4.55490E+02
   186  4.87691E-04 -8.98705E+00 -8.98705E+00 -1.07883E-06  0.00000E+00  0.00000E+00  4.55345E+02
   187  4.99873E-04 -8.98672E+00 -8.98672E+00 -1.10619E-06  0.00000E+00  0.00000E+00  4.55197E+02
   188  5.12356E-04 -8.98639E+00 -8.98639E+00 -1.13421E-06  0.00000E+00  0.00000E+00  4.55047E+02
   189  5.25147E-04 -8.98605E+00 -8.98605E+00 -1.16291E-06  0.00000E+00  0.00000E+00  4.54895E+02
   190  5.38255E-04 -8.98570E+00 -8.98570E+00 -1.19230E-06  0.00000E+00  0.00000E+00  4.54740E+02
   191  5.51686E-04 -8.98535E+00 -8.98535E+00 -1.22240E-06  0.00000E+00  0.00000E+00  4.54583E+02
   192  5.65449E-04 -8.98498E+00 -8.98498E+00 -1.25322E-06  0.00000E+00  0.00000E+00  4.54422E+02
   193  5.79552E-04 -8.98461E+00 -8.98461E+00 -1.28479E-06  0.00000E+00  0.00000E+00  4.54259E+02
   194  5.94004E-04 -8.98422E+00 -8.98422E+00 -1.31712E-06  0.00000E+00  0.00000E+00  4.54093E+02
   195  6.08812E-04 -8.98383E+00 -8.98383E+00 -1.35023E-06  0.00000E+00  0.00000E+00  4.53925E+02
   196  6.23986E-04 -8.98343E+00 -8.98343E+00 -1.38413E-06  0.00000E+00  0.00000E+00  4.53753E+02
   197  6.39535E-04 -8.98301E+00 -8.98301E+00 -1.41885E-06  0.00000E+00  0.00000E+00  4.53579E+02
   198  6.55469E-04 -8.98259E+00 -8.98259E+00 -1.45441E-06  0.00000E+00  0.00000E+00  4.53401E+02
   199  6.71796E-04 -8.98216E+00 -8.98216E+00 -1.49081E-06  0.00000E+00  0.00000E+00  4.53220E+02
   200  6.88526E-04 -8.98171E+00 -8.98171E+00 -1.52810E-06  0.00000E+00  0.00000E+00  4.53036E+02
