 #  Scattering amplitudes (in cm)      MU=(1-cos(TH))/2
 #  Z =   7,   projectile: electron
 #  Kinetic energy = 3.70000E+06 eV
 #
 # TH (deg)      MU          Re(F)        Im(F)        Re(G)        Im(G)
 #--------------------------------------------------------------------------
  0.000E+00  0.00000E+00  1.81767E-07  4.46285E-09  0.00000E+00  0.00000E+00
  1.000E-04  7.61557E-13  1.81767E-07  4.46285E-09  1.39373E-13  3.42201E-15
  1.250E-04  1.18994E-12  1.81767E-07  4.46285E-09  1.74216E-13  4.27752E-15
  1.500E-04  1.71346E-12  1.81766E-07  4.46285E-09  2.09059E-13  5.13302E-15
  1.750E-04  2.33225E-12  1.81766E-07  4.46285E-09  2.43902E-13  5.98852E-15
  2.000E-04  3.04617E-12  1.81766E-07  4.46285E-09  2.78745E-13  6.84403E-15
  2.250E-04  3.85530E-12  1.81766E-07  4.46285E-09  3.13588E-13  7.69953E-15
  2.500E-04  4.75964E-12  1.81766E-07  4.46285E-09  3.48430E-13  8.55503E-15
  2.750E-04  5.75917E-12  1.81765E-07  4.46284E-09  3.83273E-13  9.41053E-15
  3.000E-04  6.85391E-12  1.81765E-07  4.46284E-09  4.18115E-13  1.02660E-14
  3.250E-04  8.04379E-12  1.81765E-07  4.46284E-09  4.52957E-13  1.11215E-14
  3.500E-04  9.32893E-12  1.81764E-07  4.46284E-09  4.87799E-13  1.19770E-14
  3.750E-04  1.07092E-11  1.81764E-07  4.46284E-09  5.22641E-13  1.28325E-14
  4.000E-04  1.21847E-11  1.81764E-07  4.46284E-09  5.57483E-13  1.36880E-14
  4.250E-04  1.37554E-11  1.81763E-07  4.46284E-09  5.92324E-13  1.45435E-14
  4.500E-04  1.54213E-11  1.81763E-07  4.46283E-09  6.27165E-13  1.53990E-14
  4.750E-04  1.71823E-11  1.81762E-07  4.46283E-09  6.62006E-13  1.62545E-14
  5.000E-04  1.90386E-11  1.81762E-07  4.46283E-09  6.96846E-13  1.71100E-14
  5.250E-04  2.09900E-11  1.81761E-07  4.46283E-09  7.31687E-13  1.79655E-14
  5.500E-04  2.30367E-11  1.81761E-07  4.46282E-09  7.66527E-13  1.88210E-14
  5.750E-04  2.51785E-11  1.81760E-07  4.46282E-09  8.01366E-13  1.96765E-14
  6.000E-04  2.74156E-11  1.81760E-07  4.46282E-09  8.36206E-13  2.05319E-14
  6.250E-04  2.97478E-11  1.81759E-07  4.46282E-09  8.71045E-13  2.13874E-14
  6.500E-04  3.21752E-11  1.81759E-07  4.46281E-09  9.05883E-13  2.22429E-14
  6.750E-04  3.46979E-11  1.81758E-07  4.46281E-09  9.40722E-13  2.30984E-14
  7.000E-04  3.73157E-11  1.81757E-07  4.46281E-09  9.75560E-13  2.39539E-14
  7.250E-04  4.00286E-11  1.81756E-07  4.46280E-09  1.01040E-12  2.48093E-14
  7.500E-04  4.28368E-11  1.81756E-07  4.46280E-09  1.04523E-12  2.56648E-14
  7.750E-04  4.57402E-11  1.81755E-07  4.46280E-09  1.08007E-12  2.65203E-14
  8.000E-04  4.87388E-11  1.81754E-07  4.46279E-09  1.11491E-12  2.73758E-14
  8.250E-04  5.18325E-11  1.81753E-07  4.46279E-09  1.14974E-12  2.82312E-14
  8.500E-04  5.50215E-11  1.81753E-07  4.46278E-09  1.18458E-12  2.90867E-14
  8.750E-04  5.83057E-11  1.81752E-07  4.46278E-09  1.21941E-12  2.99422E-14
  9.000E-04  6.16850E-11  1.81751E-07  4.46278E-09  1.25425E-12  3.07976E-14
  9.250E-04  6.51595E-11  1.81750E-07  4.46277E-09  1.28908E-12  3.16531E-14
  9.500E-04  6.87293E-11  1.81749E-07  4.46277E-09  1.32391E-12  3.25085E-14
  9.750E-04  7.23943E-11  1.81748E-07  4.46276E-09  1.35875E-12  3.33640E-14
  1.000E-03  7.61544E-11  1.81747E-07  4.46276E-09  1.39358E-12  3.42194E-14
  1.250E-03  1.18991E-10  1.81736E-07  4.46271E-09  1.74187E-12  4.27738E-14
  1.500E-03  1.71347E-10  1.81723E-07  4.46264E-09  2.09009E-12  5.13278E-14
  1.750E-03  2.33223E-10  1.81707E-07  4.46257E-09  2.43822E-12  5.98815E-14
  2.000E-03  3.04617E-10  1.81688E-07  4.46248E-09  2.78625E-12  6.84346E-14
  2.250E-03  3.85531E-10  1.81667E-07  4.46238E-09  3.13418E-12  7.69872E-14
  2.500E-03  4.75965E-10  1.81644E-07  4.46227E-09  3.48197E-12  8.55393E-14
  2.750E-03  5.75917E-10  1.81618E-07  4.46215E-09  3.82962E-12  9.40906E-14
  3.000E-03  6.85389E-10  1.81590E-07  4.46202E-09  4.17712E-12  1.02641E-13
  3.250E-03  8.04380E-10  1.81559E-07  4.46187E-09  4.52445E-12  1.11191E-13
  3.500E-03  9.32891E-10  1.81526E-07  4.46172E-09  4.87159E-12  1.19740E-13
  3.750E-03  1.07092E-09  1.81490E-07  4.46155E-09  5.21854E-12  1.28288E-13
  4.000E-03  1.21847E-09  1.81452E-07  4.46137E-09  5.56528E-12  1.36835E-13
  4.250E-03  1.37554E-09  1.81412E-07  4.46118E-09  5.91179E-12  1.45381E-13
  4.500E-03  1.54213E-09  1.81369E-07  4.46097E-09  6.25806E-12  1.53926E-13
  4.750E-03  1.71823E-09  1.81324E-07  4.46076E-09  6.60408E-12  1.62470E-13
  5.000E-03  1.90386E-09  1.81276E-07  4.46053E-09  6.94983E-12  1.71012E-13
  5.250E-03  2.09900E-09  1.81226E-07  4.46030E-09  7.29530E-12  1.79553E-13
  5.500E-03  2.30367E-09  1.81173E-07  4.46005E-09  7.64048E-12  1.88093E-13
  5.750E-03  2.51785E-09  1.81118E-07  4.45979E-09  7.98535E-12  1.96631E-13
  6.000E-03  2.74156E-09  1.81061E-07  4.45951E-09  8.32990E-12  2.05167E-13
  6.250E-03  2.97478E-09  1.81001E-07  4.45923E-09  8.67411E-12  2.13702E-13
  6.500E-03  3.21752E-09  1.80939E-07  4.45894E-09  9.01797E-12  2.22236E-13
  6.750E-03  3.46978E-09  1.80874E-07  4.45863E-09  9.36147E-12  2.30767E-13
  7.000E-03  3.73156E-09  1.80807E-07  4.45831E-09  9.70459E-12  2.39297E-13
  7.250E-03  4.00286E-09  1.80737E-07  4.45798E-09  1.00473E-11  2.47825E-13
  7.500E-03  4.28368E-09  1.80666E-07  4.45764E-09  1.03897E-11  2.56351E-13
  7.750E-03  4.57402E-09  1.80592E-07  4.45729E-09  1.07316E-11  2.64876E-13
  8.000E-03  4.87388E-09  1.80515E-07  4.45692E-09  1.10731E-11  2.73398E-13
  8.250E-03  5.18326E-09  1.80436E-07  4.45655E-09  1.14141E-11  2.81917E-13
  8.500E-03  5.50215E-09  1.80355E-07  4.45616E-09  1.17547E-11  2.90435E-13
  8.750E-03  5.83057E-09  1.80271E-07  4.45576E-09  1.20948E-11  2.98951E-13
  9.000E-03  6.16850E-09  1.80185E-07  4.45535E-09  1.24344E-11  3.07464E-13
  9.250E-03  6.51596E-09  1.80097E-07  4.45493E-09  1.27736E-11  3.15975E-13
  9.500E-03  6.87293E-09  1.80006E-07  4.45450E-09  1.31122E-11  3.24483E-13
  9.750E-03  7.23942E-09  1.79913E-07  4.45405E-09  1.34503E-11  3.32989E-13
  1.000E-02  7.61544E-09  1.79818E-07  4.45360E-09  1.37879E-11  3.41492E-13
  1.250E-02  1.18991E-08  1.78739E-07  4.44841E-09  1.71314E-11  4.26367E-13
  1.500E-02  1.71347E-08  1.77436E-07  4.44208E-09  2.04079E-11  5.10913E-13
  1.750E-02  2.33223E-08  1.75920E-07  4.43463E-09  2.36057E-11  5.95066E-13
  2.000E-02  3.04617E-08  1.74200E-07  4.42607E-09  2.67142E-11  6.78762E-13
  2.250E-02  3.85531E-08  1.72288E-07  4.41641E-09  2.97237E-11  7.61941E-13
  2.500E-02  4.75965E-08  1.70198E-07  4.40566E-09  3.26257E-11  8.44541E-13
  2.750E-02  5.75917E-08  1.67942E-07  4.39385E-09  3.54126E-11  9.26504E-13
  3.000E-02  6.85389E-08  1.65535E-07  4.38099E-09  3.80783E-11  1.00777E-12
  3.250E-02  8.04380E-08  1.62991E-07  4.36710E-09  4.06175E-11  1.08829E-12
  3.500E-02  9.32891E-08  1.60324E-07  4.35221E-09  4.30262E-11  1.16801E-12
  3.750E-02  1.07092E-07  1.57550E-07  4.33633E-09  4.53017E-11  1.24688E-12
  4.000E-02  1.21847E-07  1.54681E-07  4.31950E-09  4.74420E-11  1.32484E-12
  4.250E-02  1.37554E-07  1.51733E-07  4.30173E-09  4.94464E-11  1.40185E-12
  4.500E-02  1.54213E-07  1.48719E-07  4.28305E-09  5.13149E-11  1.47787E-12
  4.750E-02  1.71823E-07  1.45651E-07  4.26349E-09  5.30485E-11  1.55285E-12
  5.000E-02  1.90386E-07  1.42543E-07  4.24308E-09  5.46489E-11  1.62675E-12
  5.250E-02  2.09900E-07  1.39406E-07  4.22185E-09  5.61186E-11  1.69954E-12
  5.500E-02  2.30367E-07  1.36251E-07  4.19982E-09  5.74605E-11  1.77118E-12
  5.750E-02  2.51785E-07  1.33089E-07  4.17704E-09  5.86780E-11  1.84164E-12
  6.000E-02  2.74156E-07  1.29929E-07  4.15351E-09  5.97752E-11  1.91089E-12
  6.250E-02  2.97478E-07  1.26779E-07  4.12929E-09  6.07564E-11  1.97891E-12
  6.500E-02  3.21752E-07  1.23647E-07  4.10440E-09  6.16260E-11  2.04566E-12
  6.750E-02  3.46978E-07  1.20542E-07  4.07887E-09  6.23889E-11  2.11112E-12
  7.000E-02  3.73156E-07  1.17468E-07  4.05273E-09  6.30500E-11  2.17528E-12
  7.250E-02  4.00286E-07  1.14433E-07  4.02602E-09  6.36143E-11  2.23812E-12
  7.500E-02  4.28368E-07  1.11440E-07  3.99876E-09  6.40868E-11  2.29963E-12
  7.750E-02  4.57402E-07  1.08495E-07  3.97100E-09  6.44727E-11  2.35978E-12
  8.000E-02  4.87388E-07  1.05600E-07  3.94275E-09  6.47769E-11  2.41858E-12
  8.250E-02  5.18325E-07  1.02760E-07  3.91406E-09  6.50044E-11  2.47600E-12
  8.500E-02  5.50215E-07  9.99763E-08  3.88495E-09  6.51601E-11  2.53206E-12
  8.750E-02  5.83057E-07  9.72518E-08  3.85545E-09  6.52487E-11  2.58674E-12
  9.000E-02  6.16850E-07  9.45881E-08  3.82560E-09  6.52747E-11  2.64005E-12
  9.250E-02  6.51596E-07  9.19866E-08  3.79541E-09  6.52427E-11  2.69198E-12
  9.500E-02  6.87293E-07  8.94480E-08  3.76494E-09  6.51569E-11  2.74253E-12
  9.750E-02  7.23942E-07  8.69732E-08  3.73419E-09  6.50214E-11  2.79172E-12
  1.000E-01  7.61543E-07  8.45624E-08  3.70320E-09  6.48401E-11  2.83954E-12
  1.250E-01  1.18991E-06  6.38945E-08  3.38574E-09  6.12408E-11  3.24515E-12
  1.500E-01  1.71347E-06  4.87612E-08  3.06955E-09  5.60832E-11  3.53051E-12
  1.750E-01  2.33223E-06  3.78464E-08  2.77009E-09  5.07845E-11  3.71710E-12
  2.000E-01  3.04617E-06  2.99556E-08  2.49588E-09  4.59386E-11  3.82761E-12
  2.250E-01  3.85531E-06  2.41851E-08  2.25033E-09  4.17254E-11  3.88242E-12
  2.500E-01  4.75964E-06  1.98968E-08  2.03345E-09  3.81413E-11  3.89807E-12
  2.750E-01  5.75916E-06  1.66520E-08  1.84343E-09  3.51132E-11  3.88718E-12
  3.000E-01  6.85388E-06  1.41506E-08  1.67752E-09  3.25514E-11  3.85892E-12
  3.250E-01  8.04378E-06  1.21871E-08  1.53275E-09  3.03710E-11  3.81972E-12
  3.500E-01  9.32888E-06  1.06191E-08  1.40621E-09  2.84991E-11  3.77395E-12
  3.750E-01  1.07092E-05  9.34680E-09  1.29527E-09  2.68764E-11  3.72452E-12
  4.000E-01  1.21846E-05  8.29927E-09  1.19762E-09  2.54553E-11  3.67332E-12
  4.250E-01  1.37553E-05  7.42537E-09  1.11128E-09  2.41983E-11  3.62155E-12
  4.500E-01  1.54212E-05  6.68766E-09  1.03458E-09  2.30763E-11  3.56994E-12
  4.750E-01  1.71822E-05  6.05830E-09  9.66120E-10  2.20661E-11  3.51892E-12
  5.000E-01  1.90385E-05  5.51629E-09  9.04726E-10  2.11495E-11  3.46875E-12
  5.250E-01  2.09899E-05  5.04560E-09  8.49421E-10  2.03121E-11  3.41955E-12
  5.500E-01  2.30365E-05  4.63376E-09  7.99388E-10  1.95425E-11  3.37138E-12
  5.750E-01  2.51783E-05  4.27102E-09  7.53944E-10  1.88315E-11  3.32427E-12
  6.000E-01  2.74153E-05  3.94960E-09  7.12512E-10  1.81715E-11  3.27818E-12
  6.250E-01  2.97475E-05  3.66328E-09  6.74607E-10  1.75565E-11  3.23312E-12
  6.500E-01  3.21749E-05  3.40699E-09  6.39817E-10  1.69814E-11  3.18905E-12
  6.750E-01  3.46974E-05  3.17657E-09  6.07791E-10  1.64419E-11  3.14595E-12
  7.000E-01  3.73152E-05  2.96859E-09  5.78228E-10  1.59345E-11  3.10378E-12
  7.250E-01  4.00281E-05  2.78017E-09  5.50868E-10  1.54562E-11  3.06254E-12
  7.500E-01  4.28362E-05  2.60892E-09  5.25487E-10  1.50043E-11  3.02218E-12
  7.750E-01  4.57395E-05  2.45279E-09  5.01891E-10  1.45766E-11  2.98269E-12
  8.000E-01  4.87380E-05  2.31004E-09  4.79907E-10  1.41711E-11  2.94406E-12
  8.250E-01  5.18317E-05  2.17918E-09  4.59388E-10  1.37862E-11  2.90625E-12
  8.500E-01  5.50205E-05  2.05893E-09  4.40200E-10  1.34202E-11  2.86926E-12
  8.750E-01  5.83045E-05  1.94817E-09  4.22228E-10  1.30717E-11  2.83307E-12
  9.000E-01  6.16838E-05  1.84593E-09  4.05367E-10  1.27397E-11  2.79766E-12
  9.250E-01  6.51582E-05  1.75137E-09  3.89525E-10  1.24228E-11  2.76301E-12
  9.500E-01  6.87277E-05  1.66374E-09  3.74620E-10  1.21203E-11  2.72911E-12
  9.750E-01  7.23925E-05  1.58239E-09  3.60577E-10  1.18310E-11  2.69594E-12
  1.000E+00  7.61524E-05  1.50673E-09  3.47330E-10  1.15543E-11  2.66349E-12
  1.100E+00  9.21439E-05  1.25162E-09  3.01175E-10  1.05579E-11  2.54054E-12
  1.200E+00  1.09658E-04  1.05518E-09  2.63825E-10  9.71013E-12  2.42782E-12
  1.300E+00  1.28695E-04  9.00897E-10  2.33153E-10  8.98135E-12  2.32439E-12
  1.400E+00  1.49255E-04  7.77646E-10  2.07643E-10  8.34909E-12  2.22933E-12
  1.500E+00  1.71338E-04  6.77718E-10  1.86189E-10  7.79606E-12  2.14181E-12
  1.600E+00  1.94942E-04  5.95640E-10  1.67969E-10  7.30878E-12  2.06106E-12
  1.700E+00  2.20070E-04  5.27440E-10  1.52359E-10  6.87653E-12  1.98639E-12
  1.800E+00  2.46720E-04  4.70186E-10  1.38879E-10  6.49077E-12  1.91718E-12
  1.900E+00  2.74892E-04  4.21674E-10  1.27156E-10  6.14457E-12  1.85289E-12
  2.000E+00  3.04586E-04  3.80225E-10  1.16894E-10  5.83228E-12  1.79302E-12
  2.100E+00  3.35803E-04  3.44542E-10  1.07857E-10  5.54927E-12  1.73716E-12
  2.200E+00  3.68542E-04  3.13610E-10  9.98571E-11  5.29169E-12  1.68492E-12
  2.300E+00  4.02802E-04  2.86626E-10  9.27387E-11  5.05631E-12  1.63596E-12
  2.400E+00  4.38585E-04  2.62951E-10  8.63759E-11  4.84043E-12  1.58999E-12
  2.500E+00  4.75889E-04  2.42068E-10  8.06641E-11  4.64176E-12  1.54674E-12
  2.600E+00  5.14715E-04  2.23557E-10  7.55164E-11  4.45835E-12  1.50598E-12
  2.700E+00  5.55063E-04  2.07074E-10  7.08600E-11  4.28853E-12  1.46749E-12
  2.800E+00  5.96931E-04  1.92334E-10  6.66335E-11  4.13087E-12  1.43110E-12
  2.900E+00  6.40321E-04  1.79101E-10  6.27849E-11  3.98411E-12  1.39662E-12
  3.000E+00  6.85233E-04  1.67177E-10  5.92699E-11  3.84718E-12  1.36392E-12
  3.100E+00  7.31665E-04  1.56397E-10  5.60505E-11  3.71914E-12  1.33285E-12
  3.200E+00  7.79618E-04  1.46618E-10  5.30940E-11  3.59914E-12  1.30330E-12
  3.300E+00  8.29092E-04  1.37722E-10  5.03722E-11  3.48648E-12  1.27515E-12
  3.400E+00  8.80086E-04  1.29605E-10  4.78604E-11  3.38049E-12  1.24830E-12
  3.500E+00  9.32601E-04  1.22179E-10  4.55374E-11  3.28060E-12  1.22267E-12
  3.600E+00  9.86636E-04  1.15369E-10  4.33845E-11  3.18632E-12  1.19816E-12
  3.700E+00  1.04219E-03  1.09109E-10  4.13851E-11  3.09719E-12  1.17472E-12
  3.800E+00  1.09927E-03  1.03340E-10  3.95248E-11  3.01279E-12  1.15225E-12
  3.900E+00  1.15786E-03  9.80137E-11  3.77908E-11  2.93276E-12  1.13072E-12
  4.000E+00  1.21797E-03  9.30855E-11  3.61718E-11  2.85678E-12  1.11005E-12
  4.100E+00  1.27961E-03  8.85169E-11  3.46576E-11  2.78455E-12  1.09019E-12
  4.200E+00  1.34276E-03  8.42739E-11  3.32393E-11  2.71580E-12  1.07110E-12
  4.300E+00  1.40743E-03  8.03264E-11  3.19089E-11  2.65028E-12  1.05273E-12
  4.400E+00  1.47362E-03  7.66476E-11  3.06590E-11  2.58778E-12  1.03504E-12
  4.500E+00  1.54133E-03  7.32139E-11  2.94833E-11  2.52809E-12  1.01799E-12
  4.600E+00  1.61056E-03  7.00040E-11  2.83759E-11  2.47102E-12  1.00155E-12
  4.700E+00  1.68131E-03  6.69989E-11  2.73315E-11  2.41642E-12  9.85681E-13
  4.800E+00  1.75357E-03  6.41816E-11  2.63453E-11  2.36412E-12  9.70353E-13
  4.900E+00  1.82735E-03  6.15370E-11  2.54131E-11  2.31399E-12  9.55540E-13
  5.000E+00  1.90265E-03  5.90511E-11  2.45310E-11  2.26588E-12  9.41215E-13
  5.100E+00  1.97947E-03  5.67116E-11  2.36952E-11  2.21969E-12  9.27354E-13
  5.200E+00  2.05780E-03  5.45072E-11  2.29027E-11  2.17530E-12  9.13933E-13
  5.300E+00  2.13765E-03  5.24278E-11  2.21504E-11  2.13261E-12  9.00931E-13
  5.400E+00  2.21902E-03  5.04642E-11  2.14356E-11  2.09152E-12  8.88329E-13
  5.500E+00  2.30190E-03  4.86079E-11  2.07558E-11  2.05195E-12  8.76108E-13
  5.600E+00  2.38630E-03  4.68513E-11  2.01088E-11  2.01381E-12  8.64249E-13
  5.700E+00  2.47222E-03  4.51873E-11  1.94924E-11  1.97703E-12  8.52737E-13
  5.800E+00  2.55965E-03  4.36097E-11  1.89046E-11  1.94154E-12  8.41555E-13
  5.900E+00  2.64859E-03  4.21126E-11  1.83438E-11  1.90726E-12  8.30690E-13
  6.000E+00  2.73905E-03  4.06906E-11  1.78083E-11  1.87415E-12  8.20128E-13
  6.100E+00  2.83103E-03  3.93387E-11  1.72965E-11  1.84213E-12  8.09856E-13
  6.200E+00  2.92452E-03  3.80525E-11  1.68071E-11  1.81117E-12  7.99861E-13
  6.300E+00  3.01952E-03  3.68278E-11  1.63387E-11  1.78120E-12  7.90133E-13
  6.400E+00  3.11604E-03  3.56607E-11  1.58902E-11  1.75219E-12  7.80659E-13
  6.500E+00  3.21407E-03  3.45478E-11  1.54603E-11  1.72408E-12  7.71431E-13
  6.600E+00  3.31362E-03  3.34856E-11  1.50482E-11  1.69683E-12  7.62438E-13
  6.700E+00  3.41468E-03  3.24713E-11  1.46527E-11  1.67042E-12  7.53671E-13
  6.800E+00  3.51725E-03  3.15019E-11  1.42731E-11  1.64479E-12  7.45121E-13
  6.900E+00  3.62133E-03  3.05748E-11  1.39084E-11  1.61991E-12  7.36781E-13
  7.000E+00  3.72692E-03  2.96877E-11  1.35578E-11  1.59576E-12  7.28641E-13
  7.100E+00  3.83403E-03  2.88383E-11  1.32208E-11  1.57230E-12  7.20695E-13
  7.200E+00  3.94265E-03  2.80245E-11  1.28964E-11  1.54950E-12  7.12937E-13
  7.300E+00  4.05278E-03  2.72443E-11  1.25842E-11  1.52733E-12  7.05357E-13
  7.400E+00  4.16442E-03  2.64959E-11  1.22834E-11  1.50577E-12  6.97952E-13
  7.500E+00  4.27757E-03  2.57776E-11  1.19936E-11  1.48480E-12  6.90714E-13
  7.600E+00  4.39223E-03  2.50879E-11  1.17142E-11  1.46439E-12  6.83637E-13
  7.700E+00  4.50840E-03  2.44252E-11  1.14446E-11  1.44451E-12  6.76717E-13
  7.800E+00  4.62608E-03  2.37881E-11  1.11846E-11  1.42516E-12  6.69947E-13
  7.900E+00  4.74527E-03  2.31754E-11  1.09335E-11  1.40630E-12  6.63323E-13
  8.000E+00  4.86597E-03  2.25858E-11  1.06909E-11  1.38792E-12  6.56840E-13
  8.100E+00  4.98817E-03  2.20182E-11  1.04566E-11  1.37000E-12  6.50493E-13
  8.200E+00  5.11188E-03  2.14715E-11  1.02301E-11  1.35253E-12  6.44279E-13
  8.300E+00  5.23711E-03  2.09447E-11  1.00110E-11  1.33548E-12  6.38191E-13
  8.400E+00  5.36383E-03  2.04369E-11  9.79907E-12  1.31885E-12  6.32228E-13
  8.500E+00  5.49207E-03  1.99471E-11  9.59396E-12  1.30262E-12  6.26384E-13
  8.600E+00  5.62181E-03  1.94745E-11  9.39539E-12  1.28677E-12  6.20656E-13
  8.700E+00  5.75306E-03  1.90184E-11  9.20306E-12  1.27128E-12  6.15040E-13
  8.800E+00  5.88581E-03  1.85779E-11  9.01672E-12  1.25616E-12  6.09534E-13
  8.900E+00  6.02007E-03  1.81523E-11  8.83612E-12  1.24138E-12  6.04133E-13
  9.000E+00  6.15583E-03  1.77411E-11  8.66102E-12  1.22694E-12  5.98835E-13
  9.100E+00  6.29310E-03  1.73435E-11  8.49120E-12  1.21282E-12  5.93637E-13
  9.200E+00  6.43187E-03  1.69590E-11  8.32644E-12  1.19901E-12  5.88536E-13
  9.300E+00  6.57214E-03  1.65870E-11  8.16654E-12  1.18550E-12  5.83529E-13
  9.400E+00  6.71392E-03  1.62270E-11  8.01131E-12  1.17229E-12  5.78612E-13
  9.500E+00  6.85720E-03  1.58784E-11  7.86057E-12  1.15935E-12  5.73785E-13
  9.600E+00  7.00198E-03  1.55408E-11  7.71414E-12  1.14669E-12  5.69044E-13
  9.700E+00  7.14827E-03  1.52137E-11  7.57185E-12  1.13430E-12  5.64387E-13
  9.800E+00  7.29605E-03  1.48968E-11  7.43356E-12  1.12217E-12  5.59812E-13
  9.900E+00  7.44534E-03  1.45895E-11  7.29911E-12  1.11028E-12  5.55316E-13
  1.000E+01  7.59612E-03  1.42915E-11  7.16835E-12  1.09863E-12  5.50897E-13
  1.025E+01  7.97965E-03  1.35848E-11  6.85676E-12  1.07053E-12  5.40175E-13
  1.050E+01  8.37255E-03  1.29287E-11  6.56547E-12  1.04379E-12  5.29893E-13
  1.075E+01  8.77480E-03  1.23185E-11  6.29273E-12  1.01831E-12  5.20024E-13
  1.100E+01  9.18641E-03  1.17499E-11  6.03699E-12  9.94014E-13  5.10542E-13
  1.125E+01  9.60736E-03  1.12194E-11  5.79683E-12  9.70813E-13  5.01425E-13
  1.150E+01  1.00376E-02  1.07235E-11  5.57100E-12  9.48637E-13  4.92650E-13
  1.175E+01  1.04773E-02  1.02594E-11  5.35837E-12  9.27420E-13  4.84199E-13
  1.200E+01  1.09262E-02  9.82443E-12  5.15792E-12  9.07102E-13  4.76053E-13
  1.225E+01  1.13844E-02  9.41616E-12  4.96871E-12  8.87627E-13  4.68195E-13
  1.250E+01  1.18520E-02  9.03249E-12  4.78991E-12  8.68944E-13  4.60609E-13
  1.275E+01  1.23288E-02  8.67148E-12  4.62077E-12  8.51006E-13  4.53282E-13
  1.300E+01  1.28150E-02  8.33139E-12  4.46058E-12  8.33769E-13  4.46199E-13
  1.325E+01  1.33104E-02  8.01064E-12  4.30873E-12  8.17193E-13  4.39348E-13
  1.350E+01  1.38150E-02  7.70781E-12  4.16462E-12  8.01242E-13  4.32718E-13
  1.375E+01  1.43290E-02  7.42158E-12  4.02774E-12  7.85880E-13  4.26297E-13
  1.400E+01  1.48521E-02  7.15076E-12  3.89761E-12  7.71075E-13  4.20076E-13
  1.425E+01  1.53845E-02  6.89428E-12  3.77379E-12  7.56799E-13  4.14045E-13
  1.450E+01  1.59262E-02  6.65115E-12  3.65586E-12  7.43023E-13  4.08194E-13
  1.475E+01  1.64770E-02  6.42045E-12  3.54345E-12  7.29721E-13  4.02516E-13
  1.500E+01  1.70371E-02  6.20137E-12  3.43622E-12  7.16870E-13  3.97003E-13
